;RAW4.00
[RawHeader]
Date=07/26/2021
EstimatedTotalTime=633.587
FurtherDQLReading=0
HardwareIndicator=65519
MeasuredTotalTime=633.587
MeasurementFlag=1
NumberOfMeasuredRanges=1
NumberOfRanges=1
Time=15:20:15

[VarInfo]
Type=USER
Flags=0
Value=Lab Manager

[VarInfo]
Type=SAMPLEID
Flags=0
Value=

[VarInfo]
Type=COMMENT
Flags=0
Value=

[VarInfo]
Type=UTF
Flags=0
Value=

[VarInfo]
Type=CREATOR
Flags=0
Value=BrmlToV4Converter

[VarInfo]
Type=CREATOR_VERSION
Flags=0
Value=7.3.1.0

[HardwareConfiguration]
AbsorptionFactor=9999
ActivateAbsorber=0
Alpha1=0.7093
Alpha2=0.71359
AlphaAverage=0.71073
AlphaRatio=0.5
Analyzer=0
Anode=Mo
AntiScatteringSlit=18
BeamOpticsFlags=0
Beta=0.63229
BetaRelativeIntensity=0
DeactivateAbsorber=0
DetectorSlit=9999
DivergenceSlit=0.2
GoniometerControl=0
GoniometerDiameter=560
GoniometerModel=512
GoniometerStage=7
Monochromator=0
NearSampleSlit=9999
PrimarySollerSlit=2.5
SampleChanger=0
SecondSollerSlit=9999
SynchronousAxis=0
ThinFilmAttachment=9999
WaveUnit=A

[RangeHeader]
ActuallyUsedLambda=0.71073
AdditionalDetectorMask=257
DataRecordLength=4
DelayTime=0
DisplayPlaneNumber=0
EstimatedScanTime=634
ExtraParametersMask=0
GeneratorCurrent=40
GeneratorVoltage=50
Increment=0.0245361
Increment3=0
NumberOfCompletedData=1427
NumberOfCounts=1
NumberOfDetectors=0
NumberOfDrives=2
NumberOfEncoderDrives=0
NumberOfMeasuredData=1427
NumberOfVaryingParameters=0
RangeStartTime=0
RotationSpeed=60
ScanMode=1
ScanType=Locked Coupled
SimulatedMeasConditions=0
SlitChangerIn=0
SmootingWidth=0
Start=5
Steps=1427
SynchronousRotation=0
Time=76.8

[VarInfo]
Type=PSD_DISCRIM
Flags=0
Value=0.488;0.518

[PSD]
ActualTwoTheta=9999
FirstUsedChannel=0
FixedPSD=0
PSDOpening=2.94433
PSDType=5

[Drive]
DriveFlags=1
DriveName=2Theta
DriveNumber=2
DriveOffset=0
OffsetIndex=0
OscillationAmplitude=0
OscillationSpeed=0
StartPosition=5

[Drive]
DriveFlags=1
DriveName=Theta
DriveNumber=1
DriveOffset=0
OffsetIndex=0
OscillationAmplitude=0
OscillationSpeed=0
StartPosition=2.5

[Data]
     Angle,       PSD,
         5,       199,
   5.02454,       304,
   5.04907,       331,
   5.07361,       219,
   5.09814,       361,
   5.12268,       204,
   5.14722,       303,
   5.17175,       317,
   5.19629,       232,
   5.22083,       399,
   5.24536,       251,
    5.2699,       355,
   5.29443,       362,
   5.31897,       221,
   5.34351,       418,
   5.36804,       234,
   5.39258,       367,
   5.41711,       360,
   5.44165,       224,
   5.46619,       393,
   5.49072,       260,
   5.51526,       329,
   5.53979,       377,
   5.56433,       244,
   5.58887,       396,
    5.6134,       191,
   5.63794,       353,
   5.66248,       331,
   5.68701,       227,
   5.71155,       375,
   5.73608,       230,
   5.76062,       314,
   5.78516,       327,
   5.80969,       222,
   5.83423,       366,
   5.85876,       239,
    5.8833,       325,
   5.90784,       296,
   5.93237,       215,
   5.95691,       337,
   5.98144,       213,
   6.00598,       331,
   6.03052,       296,
   6.05505,       196,
   6.07959,       358,
   6.10413,       196,
   6.12866,       287,
    6.1532,       287,
   6.17773,       165,
   6.20227,       309,
   6.22681,       202,
   6.25134,       234,
   6.27588,       257,
   6.30041,       203,
   6.32495,       321,
   6.34949,       199,
   6.37402,       255,
   6.39856,       282,
    6.4231,       159,
   6.44763,       304,
   6.47217,       178,
    6.4967,       260,
   6.52124,       249,
   6.54578,       178,
   6.57031,       311,
   6.59485,       175,
   6.61938,       252,
   6.64392,       265,
   6.66846,       181,
   6.69299,       247,
   6.71753,       175,
   6.74206,       229,
    6.7666,       257,
   6.79114,       184,
   6.81567,       307,
   6.84021,       171,
   6.86475,       236,
   6.88928,       273,
   6.91382,       150,
   6.93835,       259,
   6.96289,       187,
   6.98743,       257,
   7.01196,       248,
    7.0365,       179,
   7.06103,       270,
   7.08557,       191,
   7.11011,       250,
   7.13464,       227,
   7.15918,       168,
   7.18371,       246,
   7.20825,       181,
   7.23279,       216,
   7.25732,       247,
   7.28186,       149,
    7.3064,       258,
   7.33093,       170,
   7.35547,       222,
      7.38,       268,
   7.40454,       203,
   7.42908,       281,
   7.45361,       172,
   7.47815,       233,
   7.50268,       227,
   7.52722,       180,
   7.55176,       286,
   7.57629,       170,
   7.60083,       213,
   7.62536,       229,
    7.6499,       158,
   7.67444,       272,
   7.69897,       141,
   7.72351,       213,
   7.74805,       260,
   7.77258,       157,
   7.79712,       260,
   7.82165,       171,
   7.84619,       249,
   7.87073,       215,
   7.89526,       145,
    7.9198,       253,
   7.94433,       193,
   7.96887,       261,
   7.99341,       252,
   8.01794,       192,
   8.04248,       286,
   8.06702,       183,
   8.09155,       235,
   8.11609,       260,
   8.14062,       203,
   8.16516,       270,
    8.1897,       168,
   8.21423,       237,
   8.23877,       268,
    8.2633,       185,
   8.28784,       260,
   8.31238,       192,
   8.33691,       244,
   8.36145,       260,
   8.38598,       179,
   8.41052,       283,
   8.43506,       210,
   8.45959,       255,
   8.48413,       268,
   8.50867,       189,
    8.5332,       320,
   8.55774,       225,
   8.58227,       276,
   8.60681,       299,
   8.63135,       174,
   8.65588,       277,
   8.68042,       202,
   8.70495,       301,
   8.72949,       293,
   8.75403,       248,
   8.77856,       365,
    8.8031,       232,
   8.82763,       272,
   8.85217,       331,
   8.87671,       218,
   8.90124,       337,
   8.92578,       243,
   8.95032,       286,
   8.97485,       308,
   8.99939,       218,
   9.02392,       366,
   9.04846,       230,
     9.073,       281,
   9.09753,       310,
   9.12207,       234,
    9.1466,       365,
   9.17114,       289,
   9.19568,       334,
   9.22021,       319,
   9.24475,       257,
   9.26929,       384,
   9.29382,       279,
   9.31836,       319,
   9.34289,       344,
   9.36743,       259,
   9.39197,       407,
    9.4165,       284,
   9.44104,       350,
   9.46557,       374,
   9.49011,       271,
   9.51465,       413,
   9.53918,       287,
   9.56372,       415,
   9.58825,       442,
   9.61279,       395,
   9.63733,       544,
   9.66186,       477,
    9.6864,       523,
   9.71094,       553,
   9.73547,       390,
   9.76001,       518,
   9.78454,       468,
   9.80908,       491,
   9.83362,       525,
   9.85815,       490,
   9.88269,       622,
   9.90722,       497,
   9.93176,       531,
    9.9563,       592,
   9.98083,       508,
   10.0054,       618,
   10.0299,       555,
   10.0544,       630,
    10.079,       634,
   10.1035,       563,
    10.128,       713,
   10.1526,       605,
   10.1771,       717,
   10.2017,       744,
   10.2262,       695,
   10.2507,       777,
   10.2753,       750,
   10.2998,       810,
   10.3243,       825,
   10.3489,       729,
   10.3734,       832,
   10.3979,       823,
   10.4225,       854,
    10.447,       888,
   10.4716,       830,
   10.4961,       954,
   10.5206,       922,
   10.5452,       951,
   10.5697,      1068,
   10.5942,       983,
   10.6188,      1080,
   10.6433,       974,
   10.6678,      1075,
   10.6924,      1030,
   10.7169,       991,
   10.7415,      1033,
    10.766,      1017,
   10.7905,      1064,
   10.8151,      1153,
   10.8396,      1083,
   10.8641,      1189,
   10.8887,      1104,
   10.9132,      1112,
   10.9377,      1204,
   10.9623,      1094,
   10.9868,      1175,
   11.0113,      1180,
   11.0359,      1179,
   11.0604,      1229,
    11.085,      1165,
   11.1095,      1247,
    11.134,      1274,
   11.1586,      1283,
   11.1831,      1264,
   11.2076,      1248,
   11.2322,      1345,
   11.2567,      1321,
   11.2812,      1368,
   11.3058,      1484,
   11.3303,      1546,
   11.3549,      1753,
   11.3794,      1950,
   11.4039,      2006,
   11.4285,      2128,
    11.453,      2046,
   11.4775,      1897,
   11.5021,      1764,
   11.5266,      1736,
   11.5511,      1575,
   11.5757,      1470,
   11.6002,      1506,
   11.6248,      1480,
   11.6493,      1342,
   11.6738,      1428,
   11.6984,      1370,
   11.7229,      1373,
   11.7474,      1390,
    11.772,      1397,
   11.7965,      1441,
    11.821,      1347,
   11.8456,      1355,
   11.8701,      1424,
   11.8946,      1368,
   11.9192,      1390,
   11.9437,      1380,
   11.9683,      1417,
   11.9928,      1386,
   12.0173,      1394,
   12.0419,      1419,
   12.0664,      1470,
   12.0909,      1414,
   12.1155,      1406,
     12.14,      1426,
   12.1645,      1452,
   12.1891,      1461,
   12.2136,      1489,
   12.2382,      1501,
   12.2627,      1609,
   12.2872,      1688,
   12.3118,      1909,
   12.3363,      2088,
   12.3608,      2365,
   12.3854,      2465,
   12.4099,      2517,
   12.4344,      2331,
    12.459,      2321,
   12.4835,      2147,
   12.5081,      1951,
   12.5326,      1735,
   12.5571,      1560,
   12.5817,      1492,
   12.6062,      1448,
   12.6307,      1431,
   12.6553,      1346,
   12.6798,      1396,
   12.7043,      1360,
   12.7289,      1347,
   12.7534,      1375,
    12.778,      1318,
   12.8025,      1402,
    12.827,      1268,
   12.8516,      1338,
   12.8761,      1268,
   12.9006,      1337,
   12.9252,      1324,
   12.9497,      1332,
   12.9742,      1309,
   12.9988,      1277,
   13.0233,      1299,
   13.0478,      1246,
   13.0724,      1303,
   13.0969,      1284,
   13.1215,      1294,
    13.146,      1336,
   13.1705,      1277,
   13.1951,      1281,
   13.2196,      1284,
   13.2441,      1382,
   13.2687,      1275,
   13.2932,      1297,
   13.3177,      1364,
   13.3423,      1358,
   13.3668,      1438,
   13.3914,      1581,
   13.4159,      1884,
   13.4404,      2267,
    13.465,      2022,
   13.4895,      1805,
    13.514,      1819,
   13.5386,      1667,
   13.5631,      1434,
   13.5876,      1334,
   13.6122,      1316,
   13.6367,      1200,
   13.6613,      1218,
   13.6858,      1157,
   13.7103,      1167,
   13.7349,      1206,
   13.7594,      1173,
   13.7839,      1217,
   13.8085,      1212,
    13.833,      1200,
   13.8575,      1254,
   13.8821,      1181,
   13.9066,      1189,
   13.9311,      1150,
   13.9557,      1185,
   13.9802,      1121,
   14.0048,      1140,
   14.0293,      1143,
   14.0538,      1144,
   14.0784,      1131,
   14.1029,      1152,
   14.1274,      1152,
    14.152,      1094,
   14.1765,      1085,
    14.201,      1146,
   14.2256,      1174,
   14.2501,      1141,
   14.2747,      1072,
   14.2992,      1165,
   14.3237,      1081,
   14.3483,      1113,
   14.3728,      1092,
   14.3973,      1103,
   14.4219,      1084,
   14.4464,      1153,
   14.4709,      1137,
   14.4955,      1108,
     14.52,      1181,
   14.5446,      1139,
   14.5691,      1150,
   14.5936,      1063,
   14.6182,      1075,
   14.6427,      1105,
   14.6672,      1081,
   14.6918,      1170,
   14.7163,      1109,
   14.7408,      1096,
   14.7654,      1193,
   14.7899,      1221,
   14.8144,      1186,
    14.839,      1318,
   14.8635,      1453,
   14.8881,      1576,
   14.9126,      1716,
   14.9371,      1838,
   14.9617,      1920,
   14.9862,      1839,
   15.0107,      1795,
   15.0353,      1671,
   15.0598,      1531,
   15.0843,      1516,
   15.1089,      1258,
   15.1334,      1188,
    15.158,      1228,
   15.1825,      1104,
    15.207,      1105,
   15.2316,      1072,
   15.2561,      1037,
   15.2806,      1005,
   15.3052,      1034,
   15.3297,      1035,
   15.3542,       976,
   15.3788,      1007,
   15.4033,       921,
   15.4279,       963,
   15.4524,       994,
   15.4769,       973,
   15.5015,       960,
    15.526,       959,
   15.5505,       940,
   15.5751,       911,
   15.5996,       922,
   15.6241,       897,
   15.6487,       918,
   15.6732,       856,
   15.6977,       869,
   15.7223,       879,
   15.7468,       953,
   15.7714,       878,
   15.7959,       904,
   15.8204,       907,
    15.845,       937,
   15.8695,       817,
    15.894,       893,
   15.9186,       895,
   15.9431,       870,
   15.9676,       888,
   15.9922,       898,
   16.0167,       921,
   16.0413,       882,
   16.0658,       856,
   16.0903,       831,
   16.1149,       811,
   16.1394,       831,
   16.1639,       866,
   16.1885,       857,
    16.213,       855,
   16.2375,       859,
   16.2621,       817,
   16.2866,       852,
   16.3112,       856,
   16.3357,       880,
   16.3602,       886,
   16.3848,       925,
   16.4093,       838,
   16.4338,       795,
   16.4584,       921,
   16.4829,       857,
   16.5074,       813,
    16.532,       828,
   16.5565,       784,
    16.581,       727,
   16.6056,       774,
   16.6301,       816,
   16.6547,       792,
   16.6792,       763,
   16.7037,       784,
   16.7283,       782,
   16.7528,       790,
   16.7773,       751,
   16.8019,       685,
   16.8264,       757,
   16.8509,       768,
   16.8755,       742,
      16.9,       747,
   16.9246,       735,
   16.9491,       754,
   16.9736,       771,
   16.9982,       750,
   17.0227,       806,
   17.0472,       777,
   17.0718,       735,
   17.0963,       767,
   17.1208,       753,
   17.1454,       730,
   17.1699,       728,
   17.1945,       744,
    17.219,       717,
   17.2435,       763,
   17.2681,       785,
   17.2926,       721,
   17.3171,       729,
   17.3417,       761,
   17.3662,       742,
   17.3907,       719,
   17.4153,       766,
   17.4398,       726,
   17.4643,       800,
   17.4889,       812,
   17.5134,       762,
    17.538,       811,
   17.5625,       737,
    17.587,       798,
   17.6116,       809,
   17.6361,       816,
   17.6606,       766,
   17.6852,       821,
   17.7097,       843,
   17.7342,       859,
   17.7588,       833,
   17.7833,       815,
   17.8079,       808,
   17.8324,       792,
   17.8569,       891,
   17.8815,       956,
    17.906,       940,
   17.9305,       852,
   17.9551,       834,
   17.9796,       805,
   18.0041,       854,
   18.0287,       872,
   18.0532,       750,
   18.0778,       797,
   18.1023,       839,
   18.1268,       742,
   18.1514,       750,
   18.1759,       737,
   18.2004,       735,
    18.225,       788,
   18.2495,       686,
    18.274,       699,
   18.2986,       722,
   18.3231,       735,
   18.3476,       748,
   18.3722,       760,
   18.3967,       738,
   18.4213,       750,
   18.4458,       709,
   18.4703,       729,
   18.4949,       762,
   18.5194,       692,
   18.5439,       763,
   18.5685,       776,
    18.593,       747,
   18.6175,       731,
   18.6421,       706,
   18.6666,       739,
   18.6912,       709,
   18.7157,       732,
   18.7402,       751,
   18.7648,       764,
   18.7893,       778,
   18.8138,       775,
   18.8384,       714,
   18.8629,       743,
   18.8874,       767,
    18.912,       741,
   18.9365,       716,
   18.9611,       766,
   18.9856,       716,
   19.0101,       759,
   19.0347,       769,
   19.0592,       736,
   19.0837,       738,
   19.1083,       720,
   19.1328,       732,
   19.1573,       692,
   19.1819,       741,
   19.2064,       761,
    19.231,       757,
   19.2555,       754,
     19.28,       735,
   19.3046,       765,
   19.3291,       818,
   19.3536,       826,
   19.3782,       792,
   19.4027,       829,
   19.4272,       849,
   19.4518,       831,
   19.4763,       818,
   19.5008,       917,
   19.5254,       860,
   19.5499,       841,
   19.5745,       874,
    19.599,       850,
   19.6235,       827,
   19.6481,       856,
   19.6726,       910,
   19.6971,       872,
   19.7217,       876,
   19.7462,       996,
   19.7707,      1066,
   19.7953,      1128,
   19.8198,      1200,
   19.8444,      1135,
   19.8689,      1081,
   19.8934,      1100,
    19.918,      1068,
   19.9425,      1041,
    19.967,       955,
   19.9916,       914,
   20.0161,       892,
   20.0406,       820,
   20.0652,       779,
   20.0897,       746,
   20.1143,       761,
   20.1388,       736,
   20.1633,       780,
   20.1879,       773,
   20.2124,       733,
   20.2369,       774,
   20.2615,       716,
    20.286,       727,
   20.3105,       699,
   20.3351,       736,
   20.3596,       683,
   20.3841,       752,
   20.4087,       704,
   20.4332,       729,
   20.4578,       710,
   20.4823,       714,
   20.5068,       750,
   20.5314,       725,
   20.5559,       782,
   20.5804,       733,
    20.605,       693,
   20.6295,       755,
    20.654,       695,
   20.6786,       705,
   20.7031,       725,
   20.7277,       720,
   20.7522,       705,
   20.7767,       715,
   20.8013,       749,
   20.8258,       683,
   20.8503,       691,
   20.8749,       676,
   20.8994,       714,
   20.9239,       724,
   20.9485,       722,
    20.973,       623,
   20.9976,       694,
   21.0221,       655,
   21.0466,       712,
   21.0712,       697,
   21.0957,       725,
   21.1202,       705,
   21.1448,       729,
   21.1693,       715,
   21.1938,       752,
   21.2184,       786,
   21.2429,       795,
   21.2674,       809,
    21.292,       806,
   21.3165,       739,
   21.3411,       717,
   21.3656,       831,
   21.3901,       831,
   21.4147,       828,
   21.4392,       767,
   21.4637,       759,
   21.4883,       705,
   21.5128,       753,
   21.5373,       802,
   21.5619,       809,
   21.5864,       732,
    21.611,       736,
   21.6355,       711,
     21.66,       736,
   21.6846,       823,
   21.7091,       771,
   21.7336,       733,
   21.7582,       733,
   21.7827,       770,
   21.8072,       857,
   21.8318,       876,
   21.8563,       829,
   21.8809,       765,
   21.9054,       804,
   21.9299,       804,
   21.9545,       805,
    21.979,       824,
   22.0035,       801,
   22.0281,       803,
   22.0526,       800,
   22.0771,       806,
   22.1017,       822,
   22.1262,       847,
   22.1507,       778,
   22.1753,       806,
   22.1998,       815,
   22.2244,       776,
   22.2489,       740,
   22.2734,       794,
    22.298,       791,
   22.3225,       789,
    22.347,       846,
   22.3716,       833,
   22.3961,       842,
   22.4206,       926,
   22.4452,       924,
   22.4697,       965,
   22.4943,      1006,
   22.5188,       976,
   22.5433,       946,
   22.5679,       906,
   22.5924,       994,
   22.6169,       877,
   22.6415,       873,
    22.666,       859,
   22.6905,       761,
   22.7151,       788,
   22.7396,       700,
   22.7642,       780,
   22.7887,       737,
   22.8132,       709,
   22.8378,       700,
   22.8623,       720,
   22.8868,       750,
   22.9114,       733,
   22.9359,       751,
   22.9604,       745,
    22.985,       685,
   23.0095,       688,
    23.034,       678,
   23.0586,       643,
   23.0831,       713,
   23.1077,       689,
   23.1322,       664,
   23.1567,       666,
   23.1813,       641,
   23.2058,       682,
   23.2303,       694,
   23.2549,       650,
   23.2794,       698,
   23.3039,       652,
   23.3285,       671,
    23.353,       688,
   23.3776,       634,
   23.4021,       688,
   23.4266,       688,
   23.4512,       707,
   23.4757,       669,
   23.5002,       699,
   23.5248,       711,
   23.5493,       687,
   23.5738,       650,
   23.5984,       646,
   23.6229,       719,
   23.6475,       676,
    23.672,       628,
   23.6965,       661,
   23.7211,       711,
   23.7456,       712,
   23.7701,       713,
   23.7947,       676,
   23.8192,       639,
   23.8437,       691,
   23.8683,       731,
   23.8928,       667,
   23.9173,       657,
   23.9419,       659,
   23.9664,       691,
    23.991,       677,
   24.0155,       668,
     24.04,       683,
   24.0646,       676,
   24.0891,       674,
   24.1136,       702,
   24.1382,       690,
   24.1627,       646,
   24.1872,       740,
   24.2118,       682,
   24.2363,       639,
   24.2609,       679,
   24.2854,       706,
   24.3099,       667,
   24.3345,       755,
    24.359,       706,
   24.3835,       665,
   24.4081,       708,
   24.4326,       688,
   24.4571,       647,
   24.4817,       728,
   24.5062,       652,
   24.5308,       746,
   24.5553,       704,
   24.5798,       680,
   24.6044,       667,
   24.6289,       674,
   24.6534,       660,
    24.678,       756,
   24.7025,       732,
    24.727,       725,
   24.7516,       725,
   24.7761,       761,
   24.8006,       746,
   24.8252,       735,
   24.8497,       819,
   24.8743,       802,
   24.8988,       817,
   24.9233,       853,
   24.9479,       832,
   24.9724,       810,
   24.9969,       739,
   25.0215,       807,
    25.046,       850,
   25.0705,       773,
   25.0951,       800,
   25.1196,       759,
   25.1442,       705,
   25.1687,       733,
   25.1932,       684,
   25.2178,       730,
   25.2423,       686,
   25.2668,       751,
   25.2914,       710,
   25.3159,       680,
   25.3404,       747,
    25.365,       720,
   25.3895,       697,
   25.4141,       750,
   25.4386,       733,
   25.4631,       750,
   25.4877,       729,
   25.5122,       720,
   25.5367,       760,
   25.5613,       728,
   25.5858,       791,
   25.6103,       705,
   25.6349,       679,
   25.6594,       745,
   25.6839,       705,
   25.7085,       752,
    25.733,       698,
   25.7576,       729,
   25.7821,       690,
   25.8066,       687,
   25.8312,       714,
   25.8557,       681,
   25.8802,       715,
   25.9048,       676,
   25.9293,       658,
   25.9538,       718,
   25.9784,       698,
   26.0029,       711,
   26.0275,       652,
    26.052,       702,
   26.0765,       708,
   26.1011,       662,
   26.1256,       637,
   26.1501,       729,
   26.1747,       714,
   26.1992,       769,
   26.2237,       700,
   26.2483,       660,
   26.2728,       735,
   26.2974,       694,
   26.3219,       730,
   26.3464,       680,
    26.371,       677,
   26.3955,       723,
     26.42,       766,
   26.4446,       746,
   26.4691,       687,
   26.4936,       712,
   26.5182,       758,
   26.5427,       701,
   26.5673,       753,
   26.5918,       719,
   26.6163,       672,
   26.6409,       731,
   26.6654,       726,
   26.6899,       781,
   26.7145,       764,
    26.739,       704,
   26.7635,       758,
   26.7881,       733,
   26.8126,       792,
   26.8371,       825,
   26.8617,       737,
   26.8862,       800,
   26.9108,       771,
   26.9353,       760,
   26.9598,       790,
   26.9844,       710,
   27.0089,       744,
   27.0334,       736,
    27.058,       724,
   27.0825,       793,
    27.107,       752,
   27.1316,       771,
   27.1561,       770,
   27.1807,       743,
   27.2052,       787,
   27.2297,       754,
   27.2543,       706,
   27.2788,       694,
   27.3033,       727,
   27.3279,       685,
   27.3524,       697,
   27.3769,       699,
   27.4015,       716,
    27.426,       720,
   27.4506,       710,
   27.4751,       702,
   27.4996,       685,
   27.5242,       694,
   27.5487,       760,
   27.5732,       753,
   27.5978,       712,
   27.6223,       729,
   27.6468,       734,
   27.6714,       712,
   27.6959,       706,
   27.7204,       735,
    27.745,       768,
   27.7695,       690,
   27.7941,       792,
   27.8186,       731,
   27.8431,       774,
   27.8677,       737,
   27.8922,       747,
   27.9167,       712,
   27.9413,       699,
   27.9658,       800,
   27.9903,       741,
   28.0149,       743,
   28.0394,       746,
    28.064,       731,
   28.0885,       698,
    28.113,       704,
   28.1376,       668,
   28.1621,       693,
   28.1866,       733,
   28.2112,       726,
   28.2357,       730,
   28.2602,       747,
   28.2848,       703,
   28.3093,       747,
   28.3339,       686,
   28.3584,       741,
   28.3829,       715,
   28.4075,       696,
    28.432,       771,
   28.4565,       712,
   28.4811,       753,
   28.5056,       718,
   28.5301,       680,
   28.5547,       713,
   28.5792,       722,
   28.6037,       745,
   28.6283,       760,
   28.6528,       718,
   28.6774,       733,
   28.7019,       730,
   28.7264,       788,
    28.751,       792,
   28.7755,       728,
      28.8,       711,
   28.8246,       715,
   28.8491,       742,
   28.8736,       711,
   28.8982,       772,
   28.9227,       696,
   28.9473,       730,
   28.9718,       763,
   28.9963,       736,
   29.0209,       713,
   29.0454,       752,
   29.0699,       699,
   29.0945,       722,
    29.119,       730,
   29.1435,       704,
   29.1681,       699,
   29.1926,       659,
   29.2172,       673,
   29.2417,       688,
   29.2662,       698,
   29.2908,       713,
   29.3153,       732,
   29.3398,       706,
   29.3644,       715,
   29.3889,       681,
   29.4134,       728,
    29.438,       659,
   29.4625,       695,
    29.487,       655,
   29.5116,       687,
   29.5361,       682,
   29.5607,       689,
   29.5852,       723,
   29.6097,       671,
   29.6343,       661,
   29.6588,       714,
   29.6833,       695,
   29.7079,       699,
   29.7324,       665,
   29.7569,       731,
   29.7815,       674,
    29.806,       700,
   29.8306,       660,
   29.8551,       668,
   29.8796,       705,
   29.9042,       679,
   29.9287,       666,
   29.9532,       707,
   29.9778,       659,
   30.0023,       673,
   30.0268,       724,
   30.0514,       654,
   30.0759,       708,
   30.1005,       755,
    30.125,       704,
   30.1495,       709,
   30.1741,       718,
   30.1986,       675,
   30.2231,       723,
   30.2477,       649,
   30.2722,       699,
   30.2967,       672,
   30.3213,       745,
   30.3458,       707,
   30.3703,       698,
   30.3949,       731,
   30.4194,       699,
    30.444,       703,
   30.4685,       690,
    30.493,       725,
   30.5176,       715,
   30.5421,       685,
   30.5666,       719,
   30.5912,       695,
   30.6157,       680,
   30.6402,       719,
   30.6648,       740,
   30.6893,       684,
   30.7139,       646,
   30.7384,       708,
   30.7629,       729,
   30.7875,       677,
    30.812,       699,
   30.8365,       697,
   30.8611,       699,
   30.8856,       667,
   30.9101,       708,
   30.9347,       621,
   30.9592,       678,
   30.9838,       697,
   31.0083,       656,
   31.0328,       672,
   31.0574,       674,
   31.0819,       676,
   31.1064,       643,
    31.131,       723,
   31.1555,       648,
     31.18,       618,
   31.2046,       702,
   31.2291,       660,
   31.2536,       662,
   31.2782,       624,
   31.3027,       701,
   31.3273,       656,
   31.3518,       706,
   31.3763,       704,
   31.4009,       641,
   31.4254,       724,
   31.4499,       694,
   31.4745,       716,
    31.499,       690,
   31.5235,       661,
   31.5481,       670,
   31.5726,       674,
   31.5972,       691,
   31.6217,       723,
   31.6462,       643,
   31.6708,       672,
   31.6953,       698,
   31.7198,       615,
   31.7444,       656,
   31.7689,       670,
   31.7934,       696,
    31.818,       680,
   31.8425,       712,
   31.8671,       678,
   31.8916,       723,
   31.9161,       676,
   31.9407,       712,
   31.9652,       711,
   31.9897,       656,
   32.0143,       701,
   32.0388,       667,
   32.0633,       682,
   32.0879,       680,
   32.1124,       713,
   32.1369,       684,
   32.1615,       721,
    32.186,       682,
   32.2106,       632,
   32.2351,       643,
   32.2596,       643,
   32.2842,       587,
   32.3087,       650,
   32.3332,       669,
   32.3578,       649,
   32.3823,       629,
   32.4068,       589,
   32.4314,       652,
   32.4559,       584,
   32.4805,       604,
    32.505,       641,
   32.5295,       637,
   32.5541,       654,
   32.5786,       623,
   32.6031,       655,
   32.6277,       639,
   32.6522,       621,
   32.6767,       617,
   32.7013,       661,
   32.7258,       627,
   32.7504,       643,
   32.7749,       620,
   32.7994,       620,
    32.824,       615,
   32.8485,       595,
    32.873,       634,
   32.8976,       646,
   32.9221,       645,
   32.9466,       599,
   32.9712,       644,
   32.9957,       614,
   33.0203,       625,
   33.0448,       668,
   33.0693,       637,
   33.0939,       612,
   33.1184,       634,
   33.1429,       623,
   33.1675,       646,
    33.192,       642,
   33.2165,       606,
   33.2411,       625,
   33.2656,       645,
   33.2901,       636,
   33.3147,       615,
   33.3392,       654,
   33.3638,       596,
   33.3883,       591,
   33.4128,       633,
   33.4374,       622,
   33.4619,       632,
   33.4864,       634,
    33.511,       588,
   33.5355,       590,
     33.56,       609,
   33.5846,       659,
   33.6091,       591,
   33.6337,       602,
   33.6582,       626,
   33.6827,       567,
   33.7073,       588,
   33.7318,       632,
   33.7563,       563,
   33.7809,       588,
   33.8054,       573,
   33.8299,       550,
   33.8545,       566,
    33.879,       600,
   33.9036,       563,
   33.9281,       658,
   33.9526,       610,
   33.9772,       595,
   34.0017,       589,
   34.0262,       598,
   34.0508,       599,
   34.0753,       618,
   34.0998,       623,
   34.1244,       597,
   34.1489,       574,
   34.1734,       607,
    34.198,       596,
   34.2225,       575,
   34.2471,       577,
   34.2716,       550,
   34.2961,       596,
   34.3207,       570,
   34.3452,       565,
   34.3697,       573,
   34.3943,       593,
   34.4188,       560,
   34.4433,       584,
   34.4679,       563,
   34.4924,       543,
    34.517,       578,
   34.5415,       615,
    34.566,       554,
   34.5906,       577,
   34.6151,       595,
   34.6396,       613,
   34.6642,       569,
   34.6887,       573,
   34.7132,       563,
   34.7378,       618,
   34.7623,       542,
   34.7869,       559,
   34.8114,       574,
   34.8359,       601,
   34.8605,       601,
    34.885,       590,
   34.9095,       600,
   34.9341,       603,
   34.9586,       603,
   34.9831,       604,
   35.0077,       575,
   35.0322,       575,
   35.0567,       565,
   35.0813,       601,
   35.1058,       541,
   35.1304,       567,
   35.1549,       567,
   35.1794,       554,
    35.204,       558,
   35.2285,       550,
    35.253,       538,
   35.2776,       548,
   35.3021,       551,
   35.3266,       575,
   35.3512,       535,
   35.3757,       546,
   35.4003,       561,
   35.4248,       583,
   35.4493,       537,
   35.4739,       547,
   35.4984,       526,
   35.5229,       590,
   35.5475,       533,
    35.572,       530,
   35.5965,       535,
   35.6211,       545,
   35.6456,       528,
   35.6702,       554,
   35.6947,       545,
   35.7192,       616,
   35.7438,       526,
   35.7683,       540,
   35.7928,       533,
   35.8174,       557,
   35.8419,       583,
   35.8664,       575,
    35.891,       538,
   35.9155,       548,
     35.94,       605,
   35.9646,       536,
   35.9891,       606,
   36.0137,       530,
   36.0382,       555,
   36.0627,       575,
   36.0873,       547,
   36.1118,       551,
   36.1363,       525,
   36.1609,       586,
   36.1854,       572,
   36.2099,       522,
   36.2345,       525,
    36.259,       565,
   36.2836,       549,
   36.3081,       513,
   36.3326,       529,
   36.3572,       544,
   36.3817,       551,
   36.4062,       508,
   36.4308,       525,
   36.4553,       558,
   36.4798,       500,
   36.5044,       547,
   36.5289,       578,
   36.5535,       532,
    36.578,       495,
   36.6025,       507,
   36.6271,       473,
   36.6516,       488,
   36.6761,       517,
   36.7007,       483,
   36.7252,       479,
   36.7497,       561,
   36.7743,       516,
   36.7988,       457,
   36.8233,       503,
   36.8479,       477,
   36.8724,       499,
    36.897,       457,
   36.9215,       467,
    36.946,       508,
   36.9706,       472,
   36.9951,       468,
   37.0196,       498,
   37.0442,       477,
   37.0687,       477,
   37.0932,       490,
   37.1178,       502,
   37.1423,       518,
   37.1669,       480,
   37.1914,       470,
   37.2159,       440,
   37.2405,       515,
    37.265,       520,
   37.2895,       445,
   37.3141,       471,
   37.3386,       489,
   37.3631,       465,
   37.3877,       490,
   37.4122,       485,
   37.4368,       468,
   37.4613,       491,
   37.4858,       471,
   37.5104,       462,
   37.5349,       475,
   37.5594,       474,
    37.584,       509,
   37.6085,       466,
    37.633,       474,
   37.6576,       457,
   37.6821,       487,
   37.7066,       462,
   37.7312,       480,
   37.7557,       477,
   37.7803,       483,
   37.8048,       455,
   37.8293,       449,
   37.8539,       450,
   37.8784,       458,
   37.9029,       497,
   37.9275,       430,
    37.952,       457,
   37.9765,       471,
   38.0011,       468,
   38.0256,       474,
   38.0502,       433,
   38.0747,       473,
   38.0992,       487,
   38.1238,       456,
   38.1483,       436,
   38.1728,       416,
   38.1974,       437,
   38.2219,       483,
   38.2464,       449,
    38.271,       444,
   38.2955,       456,
   38.3201,       430,
   38.3446,       444,
   38.3691,       446,
   38.3937,       480,
   38.4182,       469,
   38.4427,       462,
   38.4673,       430,
   38.4918,       467,
   38.5163,       467,
   38.5409,       443,
   38.5654,       444,
   38.5899,       420,
   38.6145,       454,
    38.639,       473,
   38.6636,       415,
   38.6881,       429,
   38.7126,       451,
   38.7372,       441,
   38.7617,       464,
   38.7862,       415,
   38.8108,       502,
   38.8353,       459,
   38.8598,       426,
   38.8844,       473,
   38.9089,       437,
   38.9335,       439,
    38.958,       437,
   38.9825,       484,
   39.0071,       414,
   39.0316,       461,
   39.0561,       439,
   39.0807,       424,
   39.1052,       447,
   39.1297,       461,
   39.1543,       440,
   39.1788,       425,
   39.2034,       435,
   39.2279,       439,
   39.2524,       450,
    39.277,       477,
   39.3015,       436,
    39.326,       449,
   39.3506,       458,
   39.3751,       434,
   39.3996,       473,
   39.4242,       485,
   39.4487,       501,
   39.4732,       476,
   39.4978,       488,
   39.5223,       517,
   39.5469,       466,
   39.5714,       487,
   39.5959,       491,
   39.6205,       480,
    39.645,       433,
   39.6695,       488,
   39.6941,       452,
   39.7186,       502,
   39.7431,       511,
   39.7677,       448,
   39.7922,       456,
   39.8168,       459,
   39.8413,       491,
   39.8658,       492,
   39.8904,       468,
   39.9149,       450,
   39.9394,       448,
    39.964,       433,
   39.9885,       454,
