;RAW4.00
[RawHeader]
Date=07/26/2021
EstimatedTotalTime=634.087
FurtherDQLReading=0
HardwareIndicator=65519
MeasuredTotalTime=634.087
MeasurementFlag=1
NumberOfMeasuredRanges=1
NumberOfRanges=1
Time=15:33:05

[VarInfo]
Type=USER
Flags=0
Value=Lab Manager

[VarInfo]
Type=SAMPLEID
Flags=0
Value=

[VarInfo]
Type=COMMENT
Flags=0
Value=

[VarInfo]
Type=UTF
Flags=0
Value=

[VarInfo]
Type=CREATOR
Flags=0
Value=BrmlToV4Converter

[VarInfo]
Type=CREATOR_VERSION
Flags=0
Value=7.3.1.0

[HardwareConfiguration]
AbsorptionFactor=9999
ActivateAbsorber=0
Alpha1=0.7093
Alpha2=0.71359
AlphaAverage=0.71073
AlphaRatio=0.5
Analyzer=0
Anode=Mo
AntiScatteringSlit=18
BeamOpticsFlags=0
Beta=0.63229
BetaRelativeIntensity=0
DeactivateAbsorber=0
DetectorSlit=9999
DivergenceSlit=0.2
GoniometerControl=0
GoniometerDiameter=560
GoniometerModel=512
GoniometerStage=7
Monochromator=0
NearSampleSlit=9999
PrimarySollerSlit=2.5
SampleChanger=0
SecondSollerSlit=9999
SynchronousAxis=0
ThinFilmAttachment=9999
WaveUnit=A

[RangeHeader]
ActuallyUsedLambda=0.71073
AdditionalDetectorMask=257
DataRecordLength=4
DelayTime=0
DisplayPlaneNumber=0
EstimatedScanTime=634
ExtraParametersMask=0
GeneratorCurrent=40
GeneratorVoltage=50
Increment=0.0245361
Increment3=0
NumberOfCompletedData=1427
NumberOfCounts=1
NumberOfDetectors=0
NumberOfDrives=2
NumberOfEncoderDrives=0
NumberOfMeasuredData=1427
NumberOfVaryingParameters=0
RangeStartTime=0
RotationSpeed=60
ScanMode=1
ScanType=Locked Coupled
SimulatedMeasConditions=0
SlitChangerIn=0
SmootingWidth=0
Start=5
Steps=1427
SynchronousRotation=0
Time=76.8

[VarInfo]
Type=PSD_DISCRIM
Flags=0
Value=0.488;0.518

[PSD]
ActualTwoTheta=9999
FirstUsedChannel=0
FixedPSD=0
PSDOpening=2.94433
PSDType=5

[Drive]
DriveFlags=1
DriveName=2Theta
DriveNumber=2
DriveOffset=0
OffsetIndex=0
OscillationAmplitude=0
OscillationSpeed=0
StartPosition=5

[Drive]
DriveFlags=1
DriveName=Theta
DriveNumber=1
DriveOffset=0
OffsetIndex=0
OscillationAmplitude=0
OscillationSpeed=0
StartPosition=2.5

[Data]
     Angle,       PSD,
         5,       335,
   5.02454,       338,
   5.04907,       231,
   5.07361,       372,
   5.09814,       234,
   5.12268,       375,
   5.14722,       382,
   5.17175,       234,
   5.19629,       365,
   5.22083,       258,
   5.24536,       401,
    5.2699,       349,
   5.29443,       230,
   5.31897,       437,
   5.34351,       264,
   5.36804,       385,
   5.39258,       400,
   5.41711,       240,
   5.44165,       428,
   5.46619,       290,
   5.49072,       377,
   5.51526,       410,
   5.53979,       251,
   5.56433,       418,
   5.58887,       277,
    5.6134,       377,
   5.63794,       384,
   5.66248,       220,
   5.68701,       451,
   5.71155,       253,
   5.73608,       346,
   5.76062,       367,
   5.78516,       230,
   5.80969,       391,
   5.83423,       257,
   5.85876,       328,
    5.8833,       377,
   5.90784,       241,
   5.93237,       381,
   5.95691,       276,
   5.98144,       336,
   6.00598,       334,
   6.03052,       216,
   6.05505,       312,
   6.07959,       233,
   6.10413,       309,
   6.12866,       314,
    6.1532,       203,
   6.17773,       349,
   6.20227,       219,
   6.22681,       268,
   6.25134,       306,
   6.27588,       175,
   6.30041,       322,
   6.32495,       183,
   6.34949,       284,
   6.37402,       305,
   6.39856,       177,
    6.4231,       331,
   6.44763,       214,
   6.47217,       289,
    6.4967,       282,
   6.52124,       165,
   6.54578,       293,
   6.57031,       194,
   6.59485,       226,
   6.61938,       261,
   6.64392,       190,
   6.66846,       293,
   6.69299,       194,
   6.71753,       249,
   6.74206,       294,
    6.7666,       166,
   6.79114,       298,
   6.81567,       188,
   6.84021,       235,
   6.86475,       258,
   6.88928,       173,
   6.91382,       267,
   6.93835,       168,
   6.96289,       261,
   6.98743,       277,
   7.01196,       155,
    7.0365,       271,
   7.06103,       178,
   7.08557,       263,
   7.11011,       241,
   7.13464,       143,
   7.15918,       275,
   7.18371,       169,
   7.20825,       217,
   7.23279,       260,
   7.25732,       150,
   7.28186,       267,
    7.3064,       168,
   7.33093,       218,
   7.35547,       216,
      7.38,       174,
   7.40454,       249,
   7.42908,       178,
   7.45361,       249,
   7.47815,       237,
   7.50268,       163,
   7.52722,       256,
   7.55176,       163,
   7.57629,       214,
   7.60083,       241,
   7.62536,       142,
    7.6499,       241,
   7.67444,       165,
   7.69897,       235,
   7.72351,       231,
   7.74805,       156,
   7.77258,       275,
   7.79712,       195,
   7.82165,       222,
   7.84619,       227,
   7.87073,       154,
   7.89526,       263,
    7.9198,       191,
   7.94433,       231,
   7.96887,       240,
   7.99341,       151,
   8.01794,       285,
   8.04248,       187,
   8.06702,       221,
   8.09155,       242,
   8.11609,       156,
   8.14062,       294,
   8.16516,       209,
    8.1897,       252,
   8.21423,       252,
   8.23877,       190,
    8.2633,       291,
   8.28784,       209,
   8.31238,       253,
   8.33691,       276,
   8.36145,       194,
   8.38598,       272,
   8.41052,       195,
   8.43506,       243,
   8.45959,       270,
   8.48413,       181,
   8.50867,       285,
    8.5332,       237,
   8.55774,       259,
   8.58227,       298,
   8.60681,       191,
   8.63135,       310,
   8.65588,       216,
   8.68042,       302,
   8.70495,       287,
   8.72949,       206,
   8.75403,       312,
   8.77856,       208,
    8.8031,       266,
   8.82763,       315,
   8.85217,       245,
   8.87671,       341,
   8.90124,       233,
   8.92578,       261,
   8.95032,       305,
   8.97485,       236,
   8.99939,       326,
   9.02392,       252,
   9.04846,       288,
     9.073,       328,
   9.09753,       248,
   9.12207,       327,
    9.1466,       283,
   9.17114,       317,
   9.19568,       338,
   9.22021,       235,
   9.24475,       389,
   9.26929,       285,
   9.29382,       304,
   9.31836,       382,
   9.34289,       254,
   9.36743,       375,
   9.39197,       329,
    9.4165,       371,
   9.44104,       415,
   9.46557,       323,
   9.49011,       447,
   9.51465,       336,
   9.53918,       453,
   9.56372,       439,
   9.58825,       377,
   9.61279,       571,
   9.63733,       471,
   9.66186,       565,
    9.6864,       673,
   9.71094,       498,
   9.73547,       625,
   9.76001,       530,
   9.78454,       562,
   9.80908,       635,
   9.83362,       504,
   9.85815,       629,
   9.88269,       538,
   9.90722,       598,
   9.93176,       629,
    9.9563,       613,
   9.98083,       699,
   10.0054,       651,
   10.0299,       682,
   10.0544,       728,
    10.079,       597,
   10.1035,       752,
    10.128,       733,
   10.1526,       823,
   10.1771,       811,
   10.2017,       750,
   10.2262,       774,
   10.2507,       832,
   10.2753,       872,
   10.2998,       850,
   10.3243,       834,
   10.3489,       974,
   10.3734,       873,
   10.3979,       874,
   10.4225,       914,
    10.447,       869,
   10.4716,       951,
   10.4961,      1025,
   10.5206,       962,
   10.5452,      1025,
   10.5697,      1012,
   10.5942,      1133,
   10.6188,      1093,
   10.6433,      1113,
   10.6678,      1156,
   10.6924,      1129,
   10.7169,      1114,
   10.7415,      1139,
    10.766,      1065,
   10.7905,      1154,
   10.8151,      1123,
   10.8396,      1094,
   10.8641,      1078,
   10.8887,      1089,
   10.9132,      1088,
   10.9377,      1155,
   10.9623,      1187,
   10.9868,      1182,
   11.0113,      1154,
   11.0359,      1164,
   11.0604,      1211,
    11.085,      1273,
   11.1095,      1268,
    11.134,      1287,
   11.1586,      1237,
   11.1831,      1256,
   11.2076,      1289,
   11.2322,      1357,
   11.2567,      1376,
   11.2812,      1391,
   11.3058,      1481,
   11.3303,      1560,
   11.3549,      1661,
   11.3794,      1822,
   11.4039,      2182,
   11.4285,      2237,
    11.453,      2226,
   11.4775,      2163,
   11.5021,      2119,
   11.5266,      1842,
   11.5511,      1669,
   11.5757,      1552,
   11.6002,      1483,
   11.6248,      1394,
   11.6493,      1379,
   11.6738,      1285,
   11.6984,      1352,
   11.7229,      1359,
   11.7474,      1356,
    11.772,      1347,
   11.7965,      1358,
    11.821,      1370,
   11.8456,      1286,
   11.8701,      1333,
   11.8946,      1300,
   11.9192,      1360,
   11.9437,      1372,
   11.9683,      1350,
   11.9928,      1376,
   12.0173,      1376,
   12.0419,      1411,
   12.0664,      1365,
   12.0909,      1356,
   12.1155,      1400,
     12.14,      1441,
   12.1645,      1387,
   12.1891,      1477,
   12.2136,      1503,
   12.2382,      1526,
   12.2627,      1563,
   12.2872,      1663,
   12.3118,      1826,
   12.3363,      2055,
   12.3608,      2305,
   12.3854,      2510,
   12.4099,      2734,
   12.4344,      2749,
    12.459,      2748,
   12.4835,      2430,
   12.5081,      2304,
   12.5326,      2001,
   12.5571,      1858,
   12.5817,      1699,
   12.6062,      1510,
   12.6307,      1488,
   12.6553,      1419,
   12.6798,      1371,
   12.7043,      1273,
   12.7289,      1335,
   12.7534,      1278,
    12.778,      1284,
   12.8025,      1285,
    12.827,      1233,
   12.8516,      1262,
   12.8761,      1320,
   12.9006,      1257,
   12.9252,      1278,
   12.9497,      1240,
   12.9742,      1269,
   12.9988,      1288,
   13.0233,      1240,
   13.0478,      1218,
   13.0724,      1197,
   13.0969,      1208,
   13.1215,      1190,
    13.146,      1183,
   13.1705,      1185,
   13.1951,      1164,
   13.2196,      1218,
   13.2441,      1180,
   13.2687,      1206,
   13.2932,      1285,
   13.3177,      1281,
   13.3423,      1351,
   13.3668,      1378,
   13.3914,      1424,
   13.4159,      1680,
   13.4404,      2101,
    13.465,      2233,
   13.4895,      2229,
    13.514,      1985,
   13.5386,      1893,
   13.5631,      1671,
   13.5876,      1486,
   13.6122,      1319,
   13.6367,      1209,
   13.6613,      1178,
   13.6858,      1170,
   13.7103,      1142,
   13.7349,      1180,
   13.7594,      1172,
   13.7839,      1137,
   13.8085,      1089,
    13.833,      1197,
   13.8575,      1055,
   13.8821,      1054,
   13.9066,      1132,
   13.9311,      1067,
   13.9557,      1073,
   13.9802,      1089,
   14.0048,      1096,
   14.0293,      1129,
   14.0538,      1142,
   14.0784,      1074,
   14.1029,      1112,
   14.1274,      1089,
    14.152,      1108,
   14.1765,      1068,
    14.201,      1076,
   14.2256,      1103,
   14.2501,      1056,
   14.2747,      1050,
   14.2992,      1037,
   14.3237,      1044,
   14.3483,      1077,
   14.3728,      1104,
   14.3973,      1107,
   14.4219,      1118,
   14.4464,      1039,
   14.4709,      1038,
   14.4955,      1082,
     14.52,      1075,
   14.5446,      1073,
   14.5691,      1008,
   14.5936,      1024,
   14.6182,      1093,
   14.6427,      1047,
   14.6672,      1096,
   14.6918,      1106,
   14.7163,      1041,
   14.7408,      1080,
   14.7654,      1099,
   14.7899,      1139,
   14.8144,      1240,
    14.839,      1283,
   14.8635,      1408,
   14.8881,      1479,
   14.9126,      1732,
   14.9371,      1844,
   14.9617,      2060,
   14.9862,      2085,
   15.0107,      2089,
   15.0353,      1927,
   15.0598,      1844,
   15.0843,      1619,
   15.1089,      1572,
   15.1334,      1444,
    15.158,      1274,
   15.1825,      1207,
    15.207,      1104,
   15.2316,      1070,
   15.2561,      1106,
   15.2806,      1022,
   15.3052,       947,
   15.3297,       939,
   15.3542,       978,
   15.3788,      1020,
   15.4033,       909,
   15.4279,       903,
   15.4524,       968,
   15.4769,       893,
   15.5015,       861,
    15.526,       942,
   15.5505,       885,
   15.5751,       905,
   15.5996,       940,
   15.6241,       917,
   15.6487,       855,
   15.6732,       811,
   15.6977,       873,
   15.7223,       883,
   15.7468,       884,
   15.7714,       832,
   15.7959,       853,
   15.8204,       883,
    15.845,       848,
   15.8695,       825,
    15.894,       856,
   15.9186,       839,
   15.9431,       851,
   15.9676,       843,
   15.9922,       798,
   16.0167,       835,
   16.0413,       826,
   16.0658,       817,
   16.0903,       816,
   16.1149,       781,
   16.1394,       838,
   16.1639,       830,
   16.1885,       852,
    16.213,       822,
   16.2375,       851,
   16.2621,       806,
   16.2866,       797,
   16.3112,       749,
   16.3357,       871,
   16.3602,       875,
   16.3848,       962,
   16.4093,       904,
   16.4338,       839,
   16.4584,       882,
   16.4829,       846,
   16.5074,       843,
    16.532,       802,
   16.5565,       808,
    16.581,       773,
   16.6056,       819,
   16.6301,       746,
   16.6547,       757,
   16.6792,       727,
   16.7037,       756,
   16.7283,       741,
   16.7528,       777,
   16.7773,       753,
   16.8019,       707,
   16.8264,       734,
   16.8509,       772,
   16.8755,       756,
      16.9,       776,
   16.9246,       729,
   16.9491,       708,
   16.9736,       715,
   16.9982,       737,
   17.0227,       726,
   17.0472,       736,
   17.0718,       721,
   17.0963,       788,
   17.1208,       685,
   17.1454,       763,
   17.1699,       713,
   17.1945,       676,
    17.219,       745,
   17.2435,       729,
   17.2681,       696,
   17.2926,       704,
   17.3171,       723,
   17.3417,       731,
   17.3662,       692,
   17.3907,       708,
   17.4153,       729,
   17.4398,       714,
   17.4643,       692,
   17.4889,       713,
   17.5134,       768,
    17.538,       756,
   17.5625,       765,
    17.587,       766,
   17.6116,       820,
   17.6361,       833,
   17.6606,       769,
   17.6852,       776,
   17.7097,       852,
   17.7342,       786,
   17.7588,       777,
   17.7833,       811,
   17.8079,       775,
   17.8324,       827,
   17.8569,       831,
   17.8815,       888,
    17.906,       944,
   17.9305,       976,
   17.9551,       869,
   17.9796,       902,
   18.0041,       891,
   18.0287,       881,
   18.0532,       830,
   18.0778,       815,
   18.1023,       746,
   18.1268,       708,
   18.1514,       761,
   18.1759,       712,
   18.2004,       751,
    18.225,       734,
   18.2495,       719,
    18.274,       770,
   18.2986,       701,
   18.3231,       743,
   18.3476,       733,
   18.3722,       749,
   18.3967,       696,
   18.4213,       755,
   18.4458,       767,
   18.4703,       751,
   18.4949,       750,
   18.5194,       726,
   18.5439,       752,
   18.5685,       747,
    18.593,       754,
   18.6175,       691,
   18.6421,       716,
   18.6666,       724,
   18.6912,       750,
   18.7157,       708,
   18.7402,       687,
   18.7648,       719,
   18.7893,       701,
   18.8138,       783,
   18.8384,       717,
   18.8629,       697,
   18.8874,       744,
    18.912,       728,
   18.9365,       773,
   18.9611,       717,
   18.9856,       775,
   19.0101,       719,
   19.0347,       776,
   19.0592,       666,
   19.0837,       745,
   19.1083,       743,
   19.1328,       788,
   19.1573,       730,
   19.1819,       810,
   19.2064,       722,
    19.231,       801,
   19.2555,       719,
     19.28,       759,
   19.3046,       781,
   19.3291,       765,
   19.3536,       828,
   19.3782,       832,
   19.4027,       823,
   19.4272,       836,
   19.4518,       846,
   19.4763,       813,
   19.5008,       880,
   19.5254,       877,
   19.5499,       906,
   19.5745,       885,
    19.599,       827,
   19.6235,       848,
   19.6481,       867,
   19.6726,       941,
   19.6971,       943,
   19.7217,       970,
   19.7462,      1026,
   19.7707,      1041,
   19.7953,      1187,
   19.8198,      1191,
   19.8444,      1256,
   19.8689,      1289,
   19.8934,      1208,
    19.918,      1189,
   19.9425,      1105,
    19.967,      1149,
   19.9916,      1029,
   20.0161,       978,
   20.0406,       936,
   20.0652,       850,
   20.0897,       844,
   20.1143,       761,
   20.1388,       780,
   20.1633,       757,
   20.1879,       734,
   20.2124,       798,
   20.2369,       737,
   20.2615,       712,
    20.286,       698,
   20.3105,       713,
   20.3351,       709,
   20.3596,       662,
   20.3841,       697,
   20.4087,       697,
   20.4332,       711,
   20.4578,       728,
   20.4823,       702,
   20.5068,       722,
   20.5314,       669,
   20.5559,       694,
   20.5804,       688,
    20.605,       655,
   20.6295,       742,
    20.654,       762,
   20.6786,       693,
   20.7031,       720,
   20.7277,       693,
   20.7522,       645,
   20.7767,       702,
   20.8013,       693,
   20.8258,       641,
   20.8503,       670,
   20.8749,       647,
   20.8994,       687,
   20.9239,       650,
   20.9485,       677,
    20.973,       633,
   20.9976,       721,
   21.0221,       675,
   21.0466,       675,
   21.0712,       668,
   21.0957,       638,
   21.1202,       728,
   21.1448,       700,
   21.1693,       641,
   21.1938,       710,
   21.2184,       742,
   21.2429,       807,
   21.2674,       772,
    21.292,       798,
   21.3165,       827,
   21.3411,       752,
   21.3656,       802,
   21.3901,       884,
   21.4147,       917,
   21.4392,       916,
   21.4637,       819,
   21.4883,       809,
   21.5128,       675,
   21.5373,       789,
   21.5619,       786,
   21.5864,       787,
    21.611,       711,
   21.6355,       731,
     21.66,       703,
   21.6846,       771,
   21.7091,       732,
   21.7336,       741,
   21.7582,       749,
   21.7827,       768,
   21.8072,       753,
   21.8318,       848,
   21.8563,       925,
   21.8809,       858,
   21.9054,       828,
   21.9299,       752,
   21.9545,       877,
    21.979,       874,
   22.0035,       868,
   22.0281,       858,
   22.0526,       838,
   22.0771,       864,
   22.1017,       885,
   22.1262,       893,
   22.1507,       902,
   22.1753,       827,
   22.1998,       809,
   22.2244,       873,
   22.2489,       785,
   22.2734,       783,
    22.298,       822,
   22.3225,       863,
    22.347,       844,
   22.3716,       837,
   22.3961,       877,
   22.4206,       886,
   22.4452,       999,
   22.4697,      1020,
   22.4943,      1042,
   22.5188,      1137,
   22.5433,      1092,
   22.5679,      1096,
   22.5924,       941,
   22.6169,      1000,
   22.6415,       995,
    22.666,       937,
   22.6905,       877,
   22.7151,       867,
   22.7396,       807,
   22.7642,       738,
   22.7887,       773,
   22.8132,       687,
   22.8378,       734,
   22.8623,       661,
   22.8868,       711,
   22.9114,       743,
   22.9359,       700,
   22.9604,       696,
    22.985,       696,
   23.0095,       674,
    23.034,       652,
   23.0586,       684,
   23.0831,       700,
   23.1077,       641,
   23.1322,       728,
   23.1567,       683,
   23.1813,       694,
   23.2058,       641,
   23.2303,       724,
   23.2549,       668,
   23.2794,       641,
   23.3039,       663,
   23.3285,       707,
    23.353,       629,
   23.3776,       637,
   23.4021,       633,
   23.4266,       646,
   23.4512,       640,
   23.4757,       649,
   23.5002,       689,
   23.5248,       637,
   23.5493,       695,
   23.5738,       645,
   23.5984,       641,
   23.6229,       639,
   23.6475,       626,
    23.672,       684,
   23.6965,       701,
   23.7211,       650,
   23.7456,       618,
   23.7701,       683,
   23.7947,       617,
   23.8192,       683,
   23.8437,       610,
   23.8683,       630,
   23.8928,       704,
   23.9173,       652,
   23.9419,       671,
   23.9664,       651,
    23.991,       656,
   24.0155,       660,
     24.04,       675,
   24.0646,       668,
   24.0891,       649,
   24.1136,       622,
   24.1382,       629,
   24.1627,       677,
   24.1872,       675,
   24.2118,       701,
   24.2363,       727,
   24.2609,       652,
   24.2854,       742,
   24.3099,       689,
   24.3345,       677,
    24.359,       693,
   24.3835,       651,
   24.4081,       700,
   24.4326,       649,
   24.4571,       622,
   24.4817,       685,
   24.5062,       631,
   24.5308,       682,
   24.5553,       687,
   24.5798,       706,
   24.6044,       627,
   24.6289,       719,
   24.6534,       681,
    24.678,       688,
   24.7025,       720,
    24.727,       726,
   24.7516,       688,
   24.7761,       720,
   24.8006,       733,
   24.8252,       783,
   24.8497,       778,
   24.8743,       843,
   24.8988,       868,
   24.9233,       835,
   24.9479,       820,
   24.9724,       829,
   24.9969,       870,
   25.0215,       886,
    25.046,       800,
   25.0705,       813,
   25.0951,       830,
   25.1196,       730,
   25.1442,       778,
   25.1687,       750,
   25.1932,       722,
   25.2178,       755,
   25.2423,       698,
   25.2668,       687,
   25.2914,       749,
   25.3159,       743,
   25.3404,       710,
    25.365,       650,
   25.3895,       737,
   25.4141,       730,
   25.4386,       753,
   25.4631,       707,
   25.4877,       702,
   25.5122,       680,
   25.5367,       734,
   25.5613,       762,
   25.5858,       732,
   25.6103,       801,
   25.6349,       709,
   25.6594,       757,
   25.6839,       751,
   25.7085,       692,
    25.733,       768,
   25.7576,       755,
   25.7821,       749,
   25.8066,       701,
   25.8312,       694,
   25.8557,       705,
   25.8802,       680,
   25.9048,       732,
   25.9293,       707,
   25.9538,       711,
   25.9784,       663,
   26.0029,       677,
   26.0275,       756,
    26.052,       705,
   26.0765,       663,
   26.1011,       690,
   26.1256,       666,
   26.1501,       702,
   26.1747,       690,
   26.1992,       661,
   26.2237,       712,
   26.2483,       690,
   26.2728,       711,
   26.2974,       702,
   26.3219,       684,
   26.3464,       678,
    26.371,       679,
   26.3955,       705,
     26.42,       678,
   26.4446,       724,
   26.4691,       691,
   26.4936,       652,
   26.5182,       692,
   26.5427,       752,
   26.5673,       738,
   26.5918,       697,
   26.6163,       721,
   26.6409,       749,
   26.6654,       717,
   26.6899,       681,
   26.7145,       721,
    26.739,       771,
   26.7635,       745,
   26.7881,       747,
   26.8126,       705,
   26.8371,       750,
   26.8617,       745,
   26.8862,       756,
   26.9108,       768,
   26.9353,       755,
   26.9598,       806,
   26.9844,       772,
   27.0089,       705,
   27.0334,       736,
    27.058,       788,
   27.0825,       774,
    27.107,       798,
   27.1316,       756,
   27.1561,       757,
   27.1807,       731,
   27.2052,       701,
   27.2297,       775,
   27.2543,       720,
   27.2788,       703,
   27.3033,       741,
   27.3279,       699,
   27.3524,       711,
   27.3769,       706,
   27.4015,       712,
    27.426,       748,
   27.4506,       680,
   27.4751,       687,
   27.4996,       706,
   27.5242,       693,
   27.5487,       699,
   27.5732,       660,
   27.5978,       719,
   27.6223,       706,
   27.6468,       698,
   27.6714,       724,
   27.6959,       671,
   27.7204,       738,
    27.745,       729,
   27.7695,       699,
   27.7941,       714,
   27.8186,       706,
   27.8431,       705,
   27.8677,       703,
   27.8922,       753,
   27.9167,       734,
   27.9413,       691,
   27.9658,       726,
   27.9903,       656,
   28.0149,       763,
   28.0394,       688,
    28.064,       674,
   28.0885,       701,
    28.113,       723,
   28.1376,       678,
   28.1621,       680,
   28.1866,       763,
   28.2112,       657,
   28.2357,       701,
   28.2602,       675,
   28.2848,       659,
   28.3093,       680,
   28.3339,       706,
   28.3584,       704,
   28.3829,       705,
   28.4075,       753,
    28.432,       651,
   28.4565,       762,
   28.4811,       755,
   28.5056,       767,
   28.5301,       754,
   28.5547,       719,
   28.5792,       796,
   28.6037,       667,
   28.6283,       693,
   28.6528,       756,
   28.6774,       754,
   28.7019,       678,
   28.7264,       751,
    28.751,       764,
   28.7755,       737,
      28.8,       673,
   28.8246,       758,
   28.8491,       714,
   28.8736,       717,
   28.8982,       686,
   28.9227,       739,
   28.9473,       748,
   28.9718,       722,
   28.9963,       734,
   29.0209,       748,
   29.0454,       720,
   29.0699,       720,
   29.0945,       710,
    29.119,       722,
   29.1435,       660,
   29.1681,       672,
   29.1926,       663,
   29.2172,       654,
   29.2417,       760,
   29.2662,       663,
   29.2908,       685,
   29.3153,       715,
   29.3398,       709,
   29.3644,       694,
   29.3889,       677,
   29.4134,       652,
    29.438,       674,
   29.4625,       722,
    29.487,       648,
   29.5116,       663,
   29.5361,       640,
   29.5607,       692,
   29.5852,       703,
   29.6097,       672,
   29.6343,       652,
   29.6588,       648,
   29.6833,       702,
   29.7079,       696,
   29.7324,       692,
   29.7569,       695,
   29.7815,       659,
    29.806,       695,
   29.8306,       666,
   29.8551,       624,
   29.8796,       751,
   29.9042,       691,
   29.9287,       687,
   29.9532,       633,
   29.9778,       662,
   30.0023,       686,
   30.0268,       630,
   30.0514,       681,
   30.0759,       705,
   30.1005,       679,
    30.125,       735,
   30.1495,       699,
   30.1741,       711,
   30.1986,       703,
   30.2231,       727,
   30.2477,       717,
   30.2722,       688,
   30.2967,       700,
   30.3213,       679,
   30.3458,       684,
   30.3703,       694,
   30.3949,       685,
   30.4194,       696,
    30.444,       711,
   30.4685,       680,
    30.493,       683,
   30.5176,       686,
   30.5421,       676,
   30.5666,       722,
   30.5912,       668,
   30.6157,       703,
   30.6402,       670,
   30.6648,       679,
   30.6893,       681,
   30.7139,       694,
   30.7384,       713,
   30.7629,       721,
   30.7875,       656,
    30.812,       725,
   30.8365,       676,
   30.8611,       723,
   30.8856,       656,
   30.9101,       685,
   30.9347,       684,
   30.9592,       669,
   30.9838,       677,
   31.0083,       621,
   31.0328,       651,
   31.0574,       648,
   31.0819,       676,
   31.1064,       682,
    31.131,       613,
   31.1555,       670,
     31.18,       610,
   31.2046,       621,
   31.2291,       647,
   31.2536,       644,
   31.2782,       679,
   31.3027,       628,
   31.3273,       703,
   31.3518,       709,
   31.3763,       674,
   31.4009,       720,
   31.4254,       693,
   31.4499,       718,
   31.4745,       669,
    31.499,       678,
   31.5235,       677,
   31.5481,       670,
   31.5726,       671,
   31.5972,       719,
   31.6217,       757,
   31.6462,       697,
   31.6708,       703,
   31.6953,       704,
   31.7198,       676,
   31.7444,       693,
   31.7689,       671,
   31.7934,       706,
    31.818,       670,
   31.8425,       676,
   31.8671,       672,
   31.8916,       707,
   31.9161,       694,
   31.9407,       698,
   31.9652,       715,
   31.9897,       712,
   32.0143,       719,
   32.0388,       736,
   32.0633,       657,
   32.0879,       674,
   32.1124,       702,
   32.1369,       663,
   32.1615,       659,
    32.186,       699,
   32.2106,       661,
   32.2351,       647,
   32.2596,       642,
   32.2842,       638,
   32.3087,       646,
   32.3332,       626,
   32.3578,       664,
   32.3823,       595,
   32.4068,       673,
   32.4314,       595,
   32.4559,       670,
   32.4805,       631,
    32.505,       558,
   32.5295,       607,
   32.5541,       616,
   32.5786,       587,
   32.6031,       618,
   32.6277,       578,
   32.6522,       614,
   32.6767,       621,
   32.7013,       629,
   32.7258,       582,
   32.7504,       617,
   32.7749,       598,
   32.7994,       577,
    32.824,       625,
   32.8485,       657,
    32.873,       600,
   32.8976,       623,
   32.9221,       620,
   32.9466,       632,
   32.9712,       635,
   32.9957,       626,
   33.0203,       650,
   33.0448,       573,
   33.0693,       613,
   33.0939,       609,
   33.1184,       625,
   33.1429,       622,
   33.1675,       645,
    33.192,       599,
   33.2165,       659,
   33.2411,       658,
   33.2656,       595,
   33.2901,       657,
   33.3147,       611,
   33.3392,       606,
   33.3638,       615,
   33.3883,       625,
   33.4128,       628,
   33.4374,       597,
   33.4619,       642,
   33.4864,       622,
    33.511,       611,
   33.5355,       644,
     33.56,       618,
   33.5846,       581,
   33.6091,       617,
   33.6337,       555,
   33.6582,       609,
   33.6827,       571,
   33.7073,       570,
   33.7318,       610,
   33.7563,       560,
   33.7809,       562,
   33.8054,       603,
   33.8299,       584,
   33.8545,       635,
    33.879,       590,
   33.9036,       593,
   33.9281,       606,
   33.9526,       570,
   33.9772,       588,
   34.0017,       575,
   34.0262,       602,
   34.0508,       548,
   34.0753,       569,
   34.0998,       578,
   34.1244,       601,
   34.1489,       558,
   34.1734,       546,
    34.198,       653,
   34.2225,       574,
   34.2471,       552,
   34.2716,       586,
   34.2961,       545,
   34.3207,       613,
   34.3452,       586,
   34.3697,       574,
   34.3943,       632,
   34.4188,       602,
   34.4433,       570,
   34.4679,       585,
   34.4924,       562,
    34.517,       576,
   34.5415,       580,
    34.566,       562,
   34.5906,       518,
   34.6151,       568,
   34.6396,       567,
   34.6642,       568,
   34.6887,       539,
   34.7132,       614,
   34.7378,       564,
   34.7623,       628,
   34.7869,       537,
   34.8114,       571,
   34.8359,       580,
   34.8605,       621,
    34.885,       627,
   34.9095,       592,
   34.9341,       585,
   34.9586,       587,
   34.9831,       588,
   35.0077,       601,
   35.0322,       594,
   35.0567,       586,
   35.0813,       577,
   35.1058,       559,
   35.1304,       561,
   35.1549,       592,
   35.1794,       556,
    35.204,       533,
   35.2285,       576,
    35.253,       538,
   35.2776,       505,
   35.3021,       558,
   35.3266,       520,
   35.3512,       562,
   35.3757,       549,
   35.4003,       570,
   35.4248,       543,
   35.4493,       552,
   35.4739,       539,
   35.4984,       585,
   35.5229,       566,
   35.5475,       541,
    35.572,       554,
   35.5965,       575,
   35.6211,       601,
   35.6456,       559,
   35.6702,       585,
   35.6947,       572,
   35.7192,       554,
   35.7438,       589,
   35.7683,       565,
   35.7928,       558,
   35.8174,       557,
   35.8419,       565,
   35.8664,       597,
    35.891,       549,
   35.9155,       568,
     35.94,       564,
   35.9646,       545,
   35.9891,       504,
   36.0137,       546,
   36.0382,       529,
   36.0627,       558,
   36.0873,       619,
   36.1118,       569,
   36.1363,       536,
   36.1609,       558,
   36.1854,       530,
   36.2099,       557,
   36.2345,       596,
    36.259,       559,
   36.2836,       539,
   36.3081,       567,
   36.3326,       602,
   36.3572,       544,
   36.3817,       551,
   36.4062,       533,
   36.4308,       550,
   36.4553,       569,
   36.4798,       548,
   36.5044,       484,
   36.5289,       525,
   36.5535,       491,
    36.578,       521,
   36.6025,       520,
   36.6271,       524,
   36.6516,       534,
   36.6761,       507,
   36.7007,       509,
   36.7252,       504,
   36.7497,       504,
   36.7743,       502,
   36.7988,       515,
   36.8233,       481,
   36.8479,       473,
   36.8724,       479,
    36.897,       541,
   36.9215,       510,
    36.946,       448,
   36.9706,       463,
   36.9951,       483,
   37.0196,       484,
   37.0442,       490,
   37.0687,       455,
   37.0932,       467,
   37.1178,       458,
   37.1423,       474,
   37.1669,       452,
   37.1914,       488,
   37.2159,       506,
   37.2405,       464,
    37.265,       516,
   37.2895,       444,
   37.3141,       429,
   37.3386,       492,
   37.3631,       500,
   37.3877,       479,
   37.4122,       477,
   37.4368,       520,
   37.4613,       471,
   37.4858,       443,
   37.5104,       476,
   37.5349,       446,
   37.5594,       489,
    37.584,       501,
   37.6085,       477,
    37.633,       470,
   37.6576,       478,
   37.6821,       449,
   37.7066,       489,
   37.7312,       438,
   37.7557,       445,
   37.7803,       467,
   37.8048,       442,
   37.8293,       439,
   37.8539,       455,
   37.8784,       445,
   37.9029,       410,
   37.9275,       489,
    37.952,       433,
   37.9765,       431,
   38.0011,       441,
   38.0256,       463,
   38.0502,       474,
   38.0747,       449,
   38.0992,       481,
   38.1238,       459,
   38.1483,       453,
   38.1728,       429,
   38.1974,       443,
   38.2219,       405,
   38.2464,       424,
    38.271,       445,
   38.2955,       461,
   38.3201,       473,
   38.3446,       462,
   38.3691,       447,
   38.3937,       432,
   38.4182,       411,
   38.4427,       456,
   38.4673,       458,
   38.4918,       437,
   38.5163,       431,
   38.5409,       439,
   38.5654,       437,
   38.5899,       416,
   38.6145,       416,
    38.639,       425,
   38.6636,       417,
   38.6881,       420,
   38.7126,       434,
   38.7372,       406,
   38.7617,       394,
   38.7862,       429,
   38.8108,       432,
   38.8353,       418,
   38.8598,       427,
   38.8844,       430,
   38.9089,       427,
   38.9335,       469,
    38.958,       410,
   38.9825,       443,
   39.0071,       420,
   39.0316,       440,
   39.0561,       408,
   39.0807,       426,
   39.1052,       431,
   39.1297,       497,
   39.1543,       444,
   39.1788,       484,
   39.2034,       470,
   39.2279,       454,
   39.2524,       456,
    39.277,       443,
   39.3015,       461,
    39.326,       460,
   39.3506,       471,
   39.3751,       422,
   39.3996,       441,
   39.4242,       474,
   39.4487,       479,
   39.4732,       489,
   39.4978,       431,
   39.5223,       458,
   39.5469,       487,
   39.5714,       505,
   39.5959,       491,
   39.6205,       454,
    39.645,       481,
   39.6695,       476,
   39.6941,       476,
   39.7186,       474,
   39.7431,       530,
   39.7677,       484,
   39.7922,       454,
   39.8168,       457,
   39.8413,       489,
   39.8658,       465,
   39.8904,       464,
   39.9149,       486,
   39.9394,       463,
    39.964,       498,
   39.9885,       483,
