;RAW4.00
[RawHeader]
Date=07/26/2021
EstimatedTotalTime=633.477
FurtherDQLReading=0
HardwareIndicator=65519
MeasuredTotalTime=633.477
MeasurementFlag=1
NumberOfMeasuredRanges=1
NumberOfRanges=1
Time=15:48:23

[VarInfo]
Type=USER
Flags=0
Value=Lab Manager

[VarInfo]
Type=SAMPLEID
Flags=0
Value=

[VarInfo]
Type=COMMENT
Flags=0
Value=

[VarInfo]
Type=UTF
Flags=0
Value=

[VarInfo]
Type=CREATOR
Flags=0
Value=BrmlToV4Converter

[VarInfo]
Type=CREATOR_VERSION
Flags=0
Value=7.3.1.0

[HardwareConfiguration]
AbsorptionFactor=9999
ActivateAbsorber=0
Alpha1=0.7093
Alpha2=0.71359
AlphaAverage=0.71073
AlphaRatio=0.5
Analyzer=0
Anode=Mo
AntiScatteringSlit=18
BeamOpticsFlags=0
Beta=0.63229
BetaRelativeIntensity=0
DeactivateAbsorber=0
DetectorSlit=9999
DivergenceSlit=0.2
GoniometerControl=0
GoniometerDiameter=560
GoniometerModel=512
GoniometerStage=7
Monochromator=0
NearSampleSlit=9999
PrimarySollerSlit=2.5
SampleChanger=0
SecondSollerSlit=9999
SynchronousAxis=0
ThinFilmAttachment=9999
WaveUnit=A

[RangeHeader]
ActuallyUsedLambda=0.71073
AdditionalDetectorMask=257
DataRecordLength=4
DelayTime=0
DisplayPlaneNumber=0
EstimatedScanTime=633
ExtraParametersMask=0
GeneratorCurrent=40
GeneratorVoltage=50
Increment=0.0245361
Increment3=0
NumberOfCompletedData=1427
NumberOfCounts=1
NumberOfDetectors=0
NumberOfDrives=2
NumberOfEncoderDrives=0
NumberOfMeasuredData=1427
NumberOfVaryingParameters=0
RangeStartTime=0
RotationSpeed=60
ScanMode=1
ScanType=Locked Coupled
SimulatedMeasConditions=0
SlitChangerIn=0
SmootingWidth=0
Start=5
Steps=1427
SynchronousRotation=0
Time=76.8

[VarInfo]
Type=PSD_DISCRIM
Flags=0
Value=0.488;0.518

[PSD]
ActualTwoTheta=9999
FirstUsedChannel=0
FixedPSD=0
PSDOpening=2.94433
PSDType=5

[Drive]
DriveFlags=1
DriveName=2Theta
DriveNumber=2
DriveOffset=0
OffsetIndex=0
OscillationAmplitude=0
OscillationSpeed=0
StartPosition=5

[Drive]
DriveFlags=1
DriveName=Theta
DriveNumber=1
DriveOffset=0
OffsetIndex=0
OscillationAmplitude=0
OscillationSpeed=0
StartPosition=2.5

[Data]
     Angle,       PSD,
         5,       331,
   5.02454,       231,
   5.04907,       288,
   5.07361,       340,
   5.09814,       185,
   5.12268,       331,
   5.14722,       224,
   5.17175,       274,
   5.19629,       333,
   5.22083,       227,
   5.24536,       395,
    5.2699,       243,
   5.29443,       274,
   5.31897,       374,
   5.34351,       197,
   5.36804,       342,
   5.39258,       243,
   5.41711,       309,
   5.44165,       347,
   5.46619,       194,
   5.49072,       383,
   5.51526,       242,
   5.53979,       306,
   5.56433,       354,
   5.58887,       214,
    5.6134,       393,
   5.63794,       260,
   5.66248,       303,
   5.68701,       361,
   5.71155,       176,
   5.73608,       324,
   5.76062,       241,
   5.78516,       261,
   5.80969,       324,
   5.83423,       204,
   5.85876,       329,
    5.8833,       220,
   5.90784,       274,
   5.93237,       300,
   5.95691,       196,
   5.98144,       332,
   6.00598,       234,
   6.03052,       264,
   6.05505,       309,
   6.07959,       186,
   6.10413,       305,
   6.12866,       203,
    6.1532,       258,
   6.17773,       307,
   6.20227,       167,
   6.22681,       285,
   6.25134,       197,
   6.27588,       231,
   6.30041,       270,
   6.32495,       165,
   6.34949,       288,
   6.37402,       195,
   6.39856,       235,
    6.4231,       245,
   6.44763,       155,
   6.47217,       283,
    6.4967,       202,
   6.52124,       227,
   6.54578,       258,
   6.57031,       140,
   6.59485,       238,
   6.61938,       196,
   6.64392,       187,
   6.66846,       235,
   6.69299,       169,
   6.71753,       232,
   6.74206,       166,
    6.7666,       187,
   6.79114,       224,
   6.81567,       121,
   6.84021,       254,
   6.86475,       182,
   6.88928,       170,
   6.91382,       217,
   6.93835,       151,
   6.96289,       221,
   6.98743,       159,
   7.01196,       181,
    7.0365,       242,
   7.06103,       113,
   7.08557,       259,
   7.11011,       161,
   7.13464,       187,
   7.15918,       257,
   7.18371,       142,
   7.20825,       263,
   7.23279,       186,
   7.25732,       198,
   7.28186,       252,
    7.3064,       127,
   7.33093,       226,
   7.35547,       171,
      7.38,       192,
   7.40454,       197,
   7.42908,       151,
   7.45361,       212,
   7.47815,       185,
   7.50268,       177,
   7.52722,       252,
   7.55176,       135,
   7.57629,       243,
   7.60083,       207,
   7.62536,       213,
    7.6499,       232,
   7.67444,       139,
   7.69897,       234,
   7.72351,       181,
   7.74805,       197,
   7.77258,       227,
   7.79712,       129,
   7.82165,       225,
   7.84619,       176,
   7.87073,       190,
   7.89526,       262,
    7.9198,       144,
   7.94433,       272,
   7.96887,       170,
   7.99341,       178,
   8.01794,       242,
   8.04248,       149,
   8.06702,       249,
   8.09155,       173,
   8.11609,       222,
   8.14062,       242,
   8.16516,       162,
    8.1897,       229,
   8.21423,       186,
   8.23877,       204,
    8.2633,       272,
   8.28784,       136,
   8.31238,       261,
   8.33691,       195,
   8.36145,       199,
   8.38598,       272,
   8.41052,       190,
   8.43506,       275,
   8.45959,       186,
   8.48413,       215,
   8.50867,       239,
    8.5332,       176,
   8.55774,       256,
   8.58227,       216,
   8.60681,       222,
   8.63135,       247,
   8.65588,       165,
   8.68042,       282,
   8.70495,       214,
   8.72949,       243,
   8.75403,       264,
   8.77856,       169,
    8.8031,       292,
   8.82763,       229,
   8.85217,       228,
   8.87671,       276,
   8.90124,       199,
   8.92578,       331,
   8.95032,       229,
   8.97485,       225,
   8.99939,       269,
   9.02392,       202,
   9.04846,       320,
     9.073,       253,
   9.09753,       267,
   9.12207,       318,
    9.1466,       198,
   9.17114,       308,
   9.19568,       222,
   9.22021,       279,
   9.24475,       340,
   9.26929,       191,
   9.29382,       316,
   9.31836,       237,
   9.34289,       273,
   9.36743,       320,
   9.39197,       232,
    9.4165,       353,
   9.44104,       285,
   9.46557,       305,
   9.49011,       344,
   9.51465,       300,
   9.53918,       430,
   9.56372,       347,
   9.58825,       370,
   9.61279,       458,
   9.63733,       406,
   9.66186,       543,
    9.6864,       495,
   9.71094,       468,
   9.73547,       532,
   9.76001,       363,
   9.78454,       506,
   9.80908,       430,
   9.83362,       413,
   9.85815,       465,
   9.88269,       408,
   9.90722,       484,
   9.93176,       423,
    9.9563,       484,
   9.98083,       523,
   10.0054,       532,
   10.0299,       604,
   10.0544,       527,
    10.079,       565,
   10.1035,       584,
    10.128,       549,
   10.1526,       631,
   10.1771,       603,
   10.2017,       601,
   10.2262,       628,
   10.2507,       596,
   10.2753,       742,
   10.2998,       658,
   10.3243,       686,
   10.3489,       710,
   10.3734,       727,
   10.3979,       791,
   10.4225,       769,
    10.447,       820,
   10.4716,       869,
   10.4961,       752,
   10.5206,       854,
   10.5452,       881,
   10.5697,       924,
   10.5942,       981,
   10.6188,       925,
   10.6433,       967,
   10.6678,       937,
   10.6924,       938,
   10.7169,       963,
   10.7415,       929,
    10.766,       970,
   10.7905,       960,
   10.8151,       959,
   10.8396,       946,
   10.8641,       861,
   10.8887,      1052,
   10.9132,      1017,
   10.9377,      1011,
   10.9623,      1067,
   10.9868,      1016,
   11.0113,      1083,
   11.0359,      1151,
   11.0604,      1109,
    11.085,      1075,
   11.1095,      1156,
    11.134,      1190,
   11.1586,      1188,
   11.1831,      1150,
   11.2076,      1244,
   11.2322,      1312,
   11.2567,      1310,
   11.2812,      1357,
   11.3058,      1429,
   11.3303,      1640,
   11.3549,      1812,
   11.3794,      2087,
   11.4039,      2218,
   11.4285,      2282,
    11.453,      2229,
   11.4775,      2114,
   11.5021,      1891,
   11.5266,      1733,
   11.5511,      1598,
   11.5757,      1473,
   11.6002,      1322,
   11.6248,      1276,
   11.6493,      1305,
   11.6738,      1205,
   11.6984,      1229,
   11.7229,      1270,
   11.7474,      1264,
    11.772,      1332,
   11.7965,      1302,
    11.821,      1274,
   11.8456,      1261,
   11.8701,      1334,
   11.8946,      1275,
   11.9192,      1345,
   11.9437,      1264,
   11.9683,      1283,
   11.9928,      1304,
   12.0173,      1315,
   12.0419,      1312,
   12.0664,      1297,
   12.0909,      1260,
   12.1155,      1291,
     12.14,      1346,
   12.1645,      1344,
   12.1891,      1390,
   12.2136,      1381,
   12.2382,      1473,
   12.2627,      1626,
   12.2872,      1714,
   12.3118,      2013,
   12.3363,      2207,
   12.3608,      2552,
   12.3854,      2720,
   12.4099,      2854,
   12.4344,      2897,
    12.459,      2596,
   12.4835,      2360,
   12.5081,      2108,
   12.5326,      1876,
   12.5571,      1667,
   12.5817,      1508,
   12.6062,      1422,
   12.6307,      1422,
   12.6553,      1306,
   12.6798,      1255,
   12.7043,      1275,
   12.7289,      1245,
   12.7534,      1229,
    12.778,      1257,
   12.8025,      1227,
    12.827,      1231,
   12.8516,      1198,
   12.8761,      1206,
   12.9006,      1234,
   12.9252,      1173,
   12.9497,      1171,
   12.9742,      1200,
   12.9988,      1202,
   13.0233,      1163,
   13.0478,      1213,
   13.0724,      1135,
   13.0969,      1185,
   13.1215,      1166,
    13.146,      1103,
   13.1705,      1196,
   13.1951,      1221,
   13.2196,      1258,
   13.2441,      1224,
   13.2687,      1254,
   13.2932,      1222,
   13.3177,      1211,
   13.3423,      1314,
   13.3668,      1398,
   13.3914,      1512,
   13.4159,      1781,
   13.4404,      2243,
    13.465,      2323,
   13.4895,      2045,
    13.514,      1911,
   13.5386,      1799,
   13.5631,      1618,
   13.5876,      1376,
   13.6122,      1172,
   13.6367,      1192,
   13.6613,      1102,
   13.6858,      1117,
   13.7103,      1113,
   13.7349,      1057,
   13.7594,      1118,
   13.7839,      1030,
   13.8085,      1102,
    13.833,      1113,
   13.8575,      1048,
   13.8821,      1111,
   13.9066,      1096,
   13.9311,      1020,
   13.9557,      1055,
   13.9802,      1072,
   14.0048,      1040,
   14.0293,      1125,
   14.0538,      1001,
   14.0784,      1088,
   14.1029,      1042,
   14.1274,      1002,
    14.152,      1041,
   14.1765,      1053,
    14.201,      1077,
   14.2256,      1030,
   14.2501,      1022,
   14.2747,      1044,
   14.2992,      1007,
   14.3237,      1028,
   14.3483,      1052,
   14.3728,      1073,
   14.3973,      1024,
   14.4219,      1034,
   14.4464,      1110,
   14.4709,      1026,
   14.4955,      1026,
     14.52,       978,
   14.5446,       993,
   14.5691,       987,
   14.5936,      1010,
   14.6182,      1052,
   14.6427,       994,
   14.6672,       987,
   14.6918,      1089,
   14.7163,      1056,
   14.7408,      1079,
   14.7654,      1060,
   14.7899,      1211,
   14.8144,      1233,
    14.839,      1367,
   14.8635,      1464,
   14.8881,      1662,
   14.9126,      1919,
   14.9371,      2109,
   14.9617,      2149,
   14.9862,      2215,
   15.0107,      2176,
   15.0353,      1981,
   15.0598,      1830,
   15.0843,      1618,
   15.1089,      1441,
   15.1334,      1274,
    15.158,      1273,
   15.1825,      1130,
    15.207,      1061,
   15.2316,      1059,
   15.2561,       975,
   15.2806,       933,
   15.3052,       982,
   15.3297,       959,
   15.3542,       993,
   15.3788,       965,
   15.4033,       901,
   15.4279,       888,
   15.4524,       889,
   15.4769,       830,
   15.5015,       874,
    15.526,       855,
   15.5505,       866,
   15.5751,       922,
   15.5996,       864,
   15.6241,       862,
   15.6487,       871,
   15.6732,       870,
   15.6977,       828,
   15.7223,       785,
   15.7468,       922,
   15.7714,       801,
   15.7959,       816,
   15.8204,       858,
    15.845,       781,
   15.8695,       870,
    15.894,       795,
   15.9186,       803,
   15.9431,       807,
   15.9676,       825,
   15.9922,       838,
   16.0167,       782,
   16.0413,       808,
   16.0658,       799,
   16.0903,       799,
   16.1149,       781,
   16.1394,       859,
   16.1639,       755,
   16.1885,       805,
    16.213,       821,
   16.2375,       813,
   16.2621,       780,
   16.2866,       840,
   16.3112,       801,
   16.3357,       839,
   16.3602,       892,
   16.3848,       895,
   16.4093,       811,
   16.4338,       836,
   16.4584,       842,
   16.4829,       831,
   16.5074,       819,
    16.532,       800,
   16.5565,       756,
    16.581,       771,
   16.6056,       703,
   16.6301,       753,
   16.6547,       787,
   16.6792,       758,
   16.7037,       674,
   16.7283,       742,
   16.7528,       716,
   16.7773,       689,
   16.8019,       784,
   16.8264,       734,
   16.8509,       701,
   16.8755,       699,
      16.9,       734,
   16.9246,       730,
   16.9491,       697,
   16.9736,       714,
   16.9982,       687,
   17.0227,       663,
   17.0472,       748,
   17.0718,       640,
   17.0963,       726,
   17.1208,       655,
   17.1454,       704,
   17.1699,       671,
   17.1945,       741,
    17.219,       648,
   17.2435,       692,
   17.2681,       690,
   17.2926,       711,
   17.3171,       719,
   17.3417,       677,
   17.3662,       736,
   17.3907,       715,
   17.4153,       740,
   17.4398,       749,
   17.4643,       711,
   17.4889,       720,
   17.5134,       776,
    17.538,       722,
   17.5625,       772,
    17.587,       815,
   17.6116,       796,
   17.6361,       823,
   17.6606,       797,
   17.6852,       772,
   17.7097,       801,
   17.7342,       762,
   17.7588,       804,
   17.7833,       810,
   17.8079,       777,
   17.8324,       820,
   17.8569,       846,
   17.8815,       930,
    17.906,       941,
   17.9305,       860,
   17.9551,       800,
   17.9796,       881,
   18.0041,       834,
   18.0287,       812,
   18.0532,       810,
   18.0778,       800,
   18.1023,       717,
   18.1268,       756,
   18.1514,       700,
   18.1759,       690,
   18.2004,       689,
    18.225,       745,
   18.2495,       666,
    18.274,       765,
   18.2986,       711,
   18.3231,       685,
   18.3476,       724,
   18.3722,       728,
   18.3967,       731,
   18.4213,       708,
   18.4458,       751,
   18.4703,       738,
   18.4949,       719,
   18.5194,       784,
   18.5439,       721,
   18.5685,       718,
    18.593,       733,
   18.6175,       728,
   18.6421,       669,
   18.6666,       721,
   18.6912,       683,
   18.7157,       688,
   18.7402,       696,
   18.7648,       743,
   18.7893,       709,
   18.8138,       710,
   18.8384,       728,
   18.8629,       692,
   18.8874,       712,
    18.912,       763,
   18.9365,       785,
   18.9611,       757,
   18.9856,       717,
   19.0101,       719,
   19.0347,       711,
   19.0592,       725,
   19.0837,       773,
   19.1083,       780,
   19.1328,       719,
   19.1573,       702,
   19.1819,       732,
   19.2064,       714,
    19.231,       728,
   19.2555,       737,
     19.28,       812,
   19.3046,       801,
   19.3291,       797,
   19.3536,       805,
   19.3782,       878,
   19.4027,       763,
   19.4272,       797,
   19.4518,       809,
   19.4763,       800,
   19.5008,       869,
   19.5254,       874,
   19.5499,       892,
   19.5745,       840,
    19.599,       858,
   19.6235,       884,
   19.6481,       871,
   19.6726,       891,
   19.6971,       913,
   19.7217,       923,
   19.7462,      1081,
   19.7707,      1155,
   19.7953,      1232,
   19.8198,      1341,
   19.8444,      1295,
   19.8689,      1263,
   19.8934,      1205,
    19.918,      1181,
   19.9425,      1145,
    19.967,      1100,
   19.9916,       971,
   20.0161,       936,
   20.0406,       857,
   20.0652,       850,
   20.0897,       773,
   20.1143,       747,
   20.1388,       684,
   20.1633,       734,
   20.1879,       714,
   20.2124,       725,
   20.2369,       679,
   20.2615,       677,
    20.286,       710,
   20.3105,       659,
   20.3351,       674,
   20.3596,       720,
   20.3841,       681,
   20.4087,       685,
   20.4332,       749,
   20.4578,       665,
   20.4823,       656,
   20.5068,       643,
   20.5314,       693,
   20.5559,       692,
   20.5804,       689,
    20.605,       650,
   20.6295,       660,
    20.654,       613,
   20.6786,       632,
   20.7031,       636,
   20.7277,       721,
   20.7522,       637,
   20.7767,       683,
   20.8013,       652,
   20.8258,       678,
   20.8503,       689,
   20.8749,       664,
   20.8994,       713,
   20.9239,       661,
   20.9485,       680,
    20.973,       651,
   20.9976,       706,
   21.0221,       708,
   21.0466,       701,
   21.0712,       746,
   21.0957,       730,
   21.1202,       669,
   21.1448,       716,
   21.1693,       728,
   21.1938,       718,
   21.2184,       708,
   21.2429,       767,
   21.2674,       782,
    21.292,       855,
   21.3165,       756,
   21.3411,       745,
   21.3656,       781,
   21.3901,       849,
   21.4147,       929,
   21.4392,       803,
   21.4637,       790,
   21.4883,       734,
   21.5128,       730,
   21.5373,       753,
   21.5619,       740,
   21.5864,       738,
    21.611,       720,
   21.6355,       711,
     21.66,       691,
   21.6846,       717,
   21.7091,       752,
   21.7336,       774,
   21.7582,       727,
   21.7827,       743,
   21.8072,       821,
   21.8318,       889,
   21.8563,       848,
   21.8809,       820,
   21.9054,       791,
   21.9299,       783,
   21.9545,       801,
    21.979,       835,
   22.0035,       835,
   22.0281,       845,
   22.0526,       883,
   22.0771,       880,
   22.1017,       815,
   22.1262,       862,
   22.1507,       803,
   22.1753,       886,
   22.1998,       824,
   22.2244,       764,
   22.2489,       813,
   22.2734,       769,
    22.298,       808,
   22.3225,       776,
    22.347,       809,
   22.3716,       810,
   22.3961,       807,
   22.4206,      1002,
   22.4452,      1009,
   22.4697,      1093,
   22.4943,      1131,
   22.5188,      1166,
   22.5433,      1109,
   22.5679,       980,
   22.5924,       992,
   22.6169,       962,
   22.6415,       936,
    22.666,       880,
   22.6905,       834,
   22.7151,       804,
   22.7396,       795,
   22.7642,       779,
   22.7887,       739,
   22.8132,       706,
   22.8378,       674,
   22.8623,       666,
   22.8868,       691,
   22.9114,       651,
   22.9359,       674,
   22.9604,       665,
    22.985,       653,
   23.0095,       681,
    23.034,       690,
   23.0586,       665,
   23.0831,       666,
   23.1077,       652,
   23.1322,       659,
   23.1567,       645,
   23.1813,       651,
   23.2058,       640,
   23.2303,       616,
   23.2549,       660,
   23.2794,       691,
   23.3039,       624,
   23.3285,       647,
    23.353,       622,
   23.3776,       619,
   23.4021,       623,
   23.4266,       691,
   23.4512,       623,
   23.4757,       622,
   23.5002,       631,
   23.5248,       614,
   23.5493,       615,
   23.5738,       665,
   23.5984,       681,
   23.6229,       634,
   23.6475,       625,
    23.672,       643,
   23.6965,       627,
   23.7211,       652,
   23.7456,       641,
   23.7701,       700,
   23.7947,       650,
   23.8192,       671,
   23.8437,       649,
   23.8683,       687,
   23.8928,       619,
   23.9173,       633,
   23.9419,       592,
   23.9664,       708,
    23.991,       613,
   24.0155,       640,
     24.04,       606,
   24.0646,       620,
   24.0891,       601,
   24.1136,       656,
   24.1382,       645,
   24.1627,       674,
   24.1872,       588,
   24.2118,       619,
   24.2363,       645,
   24.2609,       619,
   24.2854,       650,
   24.3099,       655,
   24.3345,       660,
    24.359,       679,
   24.3835,       632,
   24.4081,       631,
   24.4326,       655,
   24.4571,       652,
   24.4817,       658,
   24.5062,       643,
   24.5308,       701,
   24.5553,       653,
   24.5798,       630,
   24.6044,       657,
   24.6289,       681,
   24.6534,       692,
    24.678,       641,
   24.7025,       677,
    24.727,       711,
   24.7516,       675,
   24.7761,       694,
   24.8006,       750,
   24.8252,       761,
   24.8497,       755,
   24.8743,       794,
   24.8988,       806,
   24.9233,       827,
   24.9479,       842,
   24.9724,       821,
   24.9969,       810,
   25.0215,       818,
    25.046,       833,
   25.0705,       792,
   25.0951,       791,
   25.1196,       772,
   25.1442,       739,
   25.1687,       719,
   25.1932,       740,
   25.2178,       697,
   25.2423,       705,
   25.2668,       731,
   25.2914,       709,
   25.3159,       708,
   25.3404,       704,
    25.365,       658,
   25.3895,       722,
   25.4141,       700,
   25.4386,       680,
   25.4631,       702,
   25.4877,       727,
   25.5122,       744,
   25.5367,       726,
   25.5613,       749,
   25.5858,       760,
   25.6103,       772,
   25.6349,       726,
   25.6594,       698,
   25.6839,       642,
   25.7085,       695,
    25.733,       717,
   25.7576,       673,
   25.7821,       701,
   25.8066,       694,
   25.8312,       674,
   25.8557,       691,
   25.8802,       689,
   25.9048,       704,
   25.9293,       669,
   25.9538,       687,
   25.9784,       679,
   26.0029,       689,
   26.0275,       676,
    26.052,       665,
   26.0765,       709,
   26.1011,       652,
   26.1256,       643,
   26.1501,       642,
   26.1747,       650,
   26.1992,       622,
   26.2237,       647,
   26.2483,       632,
   26.2728,       641,
   26.2974,       666,
   26.3219,       700,
   26.3464,       642,
    26.371,       657,
   26.3955,       735,
     26.42,       675,
   26.4446,       695,
   26.4691,       711,
   26.4936,       688,
   26.5182,       674,
   26.5427,       715,
   26.5673,       766,
   26.5918,       720,
   26.6163,       706,
   26.6409,       678,
   26.6654,       694,
   26.6899,       712,
   26.7145,       750,
    26.739,       691,
   26.7635,       692,
   26.7881,       742,
   26.8126,       709,
   26.8371,       735,
   26.8617,       671,
   26.8862,       697,
   26.9108,       735,
   26.9353,       791,
   26.9598,       765,
   26.9844,       748,
   27.0089,       721,
   27.0334,       765,
    27.058,       712,
   27.0825,       776,
    27.107,       728,
   27.1316,       713,
   27.1561,       713,
   27.1807,       683,
   27.2052,       758,
   27.2297,       700,
   27.2543,       697,
   27.2788,       709,
   27.3033,       712,
   27.3279,       721,
   27.3524,       663,
   27.3769,       674,
   27.4015,       687,
    27.426,       672,
   27.4506,       689,
   27.4751,       674,
   27.4996,       691,
   27.5242,       678,
   27.5487,       684,
   27.5732,       651,
   27.5978,       665,
   27.6223,       661,
   27.6468,       700,
   27.6714,       692,
   27.6959,       657,
   27.7204,       690,
    27.745,       704,
   27.7695,       678,
   27.7941,       697,
   27.8186,       685,
   27.8431,       679,
   27.8677,       700,
   27.8922,       695,
   27.9167,       712,
   27.9413,       715,
   27.9658,       654,
   27.9903,       674,
   28.0149,       717,
   28.0394,       627,
    28.064,       647,
   28.0885,       669,
    28.113,       665,
   28.1376,       657,
   28.1621,       686,
   28.1866,       665,
   28.2112,       666,
   28.2357,       689,
   28.2602,       658,
   28.2848,       708,
   28.3093,       679,
   28.3339,       682,
   28.3584,       659,
   28.3829,       680,
   28.4075,       668,
    28.432,       689,
   28.4565,       688,
   28.4811,       672,
   28.5056,       725,
   28.5301,       711,
   28.5547,       716,
   28.5792,       723,
   28.6037,       696,
   28.6283,       677,
   28.6528,       686,
   28.6774,       682,
   28.7019,       712,
   28.7264,       712,
    28.751,       748,
   28.7755,       721,
      28.8,       757,
   28.8246,       670,
   28.8491,       723,
   28.8736,       634,
   28.8982,       688,
   28.9227,       685,
   28.9473,       680,
   28.9718,       709,
   28.9963,       686,
   29.0209,       694,
   29.0454,       661,
   29.0699,       677,
   29.0945,       645,
    29.119,       683,
   29.1435,       670,
   29.1681,       697,
   29.1926,       669,
   29.2172,       658,
   29.2417,       620,
   29.2662,       637,
   29.2908,       646,
   29.3153,       670,
   29.3398,       681,
   29.3644,       654,
   29.3889,       660,
   29.4134,       640,
    29.438,       628,
   29.4625,       627,
    29.487,       643,
   29.5116,       614,
   29.5361,       609,
   29.5607,       626,
   29.5852,       682,
   29.6097,       683,
   29.6343,       663,
   29.6588,       663,
   29.6833,       648,
   29.7079,       630,
   29.7324,       649,
   29.7569,       676,
   29.7815,       650,
    29.806,       629,
   29.8306,       634,
   29.8551,       672,
   29.8796,       632,
   29.9042,       649,
   29.9287,       576,
   29.9532,       668,
   29.9778,       616,
   30.0023,       644,
   30.0268,       688,
   30.0514,       640,
   30.0759,       671,
   30.1005,       709,
    30.125,       637,
   30.1495,       668,
   30.1741,       684,
   30.1986,       681,
   30.2231,       657,
   30.2477,       692,
   30.2722,       641,
   30.2967,       674,
   30.3213,       664,
   30.3458,       691,
   30.3703,       644,
   30.3949,       663,
   30.4194,       663,
    30.444,       646,
   30.4685,       657,
    30.493,       587,
   30.5176,       601,
   30.5421,       652,
   30.5666,       698,
   30.5912,       623,
   30.6157,       592,
   30.6402,       595,
   30.6648,       692,
   30.6893,       632,
   30.7139,       673,
   30.7384,       638,
   30.7629,       613,
   30.7875,       635,
    30.812,       622,
   30.8365,       667,
   30.8611,       642,
   30.8856,       615,
   30.9101,       631,
   30.9347,       643,
   30.9592,       593,
   30.9838,       609,
   31.0083,       602,
   31.0328,       626,
   31.0574,       625,
   31.0819,       600,
   31.1064,       588,
    31.131,       621,
   31.1555,       631,
     31.18,       671,
   31.2046,       593,
   31.2291,       619,
   31.2536,       593,
   31.2782,       601,
   31.3027,       578,
   31.3273,       613,
   31.3518,       637,
   31.3763,       681,
   31.4009,       657,
   31.4254,       611,
   31.4499,       664,
   31.4745,       623,
    31.499,       628,
   31.5235,       647,
   31.5481,       611,
   31.5726,       695,
   31.5972,       643,
   31.6217,       597,
   31.6462,       608,
   31.6708,       651,
   31.6953,       639,
   31.7198,       615,
   31.7444,       600,
   31.7689,       606,
   31.7934,       696,
    31.818,       642,
   31.8425,       621,
   31.8671,       649,
   31.8916,       654,
   31.9161,       648,
   31.9407,       646,
   31.9652,       679,
   31.9897,       664,
   32.0143,       646,
   32.0388,       638,
   32.0633,       627,
   32.0879,       623,
   32.1124,       633,
   32.1369,       652,
   32.1615,       650,
    32.186,       617,
   32.2106,       628,
   32.2351,       613,
   32.2596,       607,
   32.2842,       654,
   32.3087,       588,
   32.3332,       609,
   32.3578,       615,
   32.3823,       598,
   32.4068,       591,
   32.4314,       560,
   32.4559,       571,
   32.4805,       560,
    32.505,       584,
   32.5295,       565,
   32.5541,       576,
   32.5786,       572,
   32.6031,       618,
   32.6277,       582,
   32.6522,       572,
   32.6767,       590,
   32.7013,       570,
   32.7258,       560,
   32.7504,       631,
   32.7749,       546,
   32.7994,       615,
    32.824,       587,
   32.8485,       597,
    32.873,       595,
   32.8976,       597,
   32.9221,       598,
   32.9466,       558,
   32.9712,       607,
   32.9957,       555,
   33.0203,       564,
   33.0448,       578,
   33.0693,       573,
   33.0939,       564,
   33.1184,       564,
   33.1429,       576,
   33.1675,       545,
    33.192,       611,
   33.2165,       606,
   33.2411,       588,
   33.2656,       636,
   33.2901,       639,
   33.3147,       576,
   33.3392,       582,
   33.3638,       574,
   33.3883,       579,
   33.4128,       609,
   33.4374,       573,
   33.4619,       599,
   33.4864,       570,
    33.511,       554,
   33.5355,       600,
     33.56,       539,
   33.5846,       517,
   33.6091,       561,
   33.6337,       571,
   33.6582,       508,
   33.6827,       565,
   33.7073,       566,
   33.7318,       497,
   33.7563,       569,
   33.7809,       542,
   33.8054,       600,
   33.8299,       584,
   33.8545,       561,
    33.879,       549,
   33.9036,       528,
   33.9281,       552,
   33.9526,       559,
   33.9772,       549,
   34.0017,       522,
   34.0262,       540,
   34.0508,       574,
   34.0753,       558,
   34.0998,       516,
   34.1244,       525,
   34.1489,       548,
   34.1734,       518,
    34.198,       523,
   34.2225,       518,
   34.2471,       477,
   34.2716,       502,
   34.2961,       542,
   34.3207,       529,
   34.3452,       542,
   34.3697,       521,
   34.3943,       522,
   34.4188,       514,
   34.4433,       531,
   34.4679,       541,
   34.4924,       530,
    34.517,       545,
   34.5415,       480,
    34.566,       504,
   34.5906,       513,
   34.6151,       551,
   34.6396,       536,
   34.6642,       565,
   34.6887,       512,
   34.7132,       507,
   34.7378,       538,
   34.7623,       547,
   34.7869,       522,
   34.8114,       492,
   34.8359,       555,
   34.8605,       568,
    34.885,       581,
   34.9095,       546,
   34.9341,       537,
   34.9586,       521,
   34.9831,       520,
   35.0077,       572,
   35.0322,       565,
   35.0567,       540,
   35.0813,       542,
   35.1058,       560,
   35.1304,       530,
   35.1549,       535,
   35.1794,       534,
    35.204,       545,
   35.2285,       507,
    35.253,       507,
   35.2776,       568,
   35.3021,       566,
   35.3266,       521,
   35.3512,       502,
   35.3757,       512,
   35.4003,       531,
   35.4248,       498,
   35.4493,       493,
   35.4739,       495,
   35.4984,       532,
   35.5229,       507,
   35.5475,       519,
    35.572,       537,
   35.5965,       529,
   35.6211,       574,
   35.6456,       493,
   35.6702,       552,
   35.6947,       534,
   35.7192,       550,
   35.7438,       535,
   35.7683,       515,
   35.7928,       490,
   35.8174,       548,
   35.8419,       545,
   35.8664,       521,
    35.891,       515,
   35.9155,       490,
     35.94,       517,
   35.9646,       534,
   35.9891,       501,
   36.0137,       511,
   36.0382,       526,
   36.0627,       494,
   36.0873,       564,
   36.1118,       496,
   36.1363,       480,
   36.1609,       516,
   36.1854,       492,
   36.2099,       544,
   36.2345,       528,
    36.259,       566,
   36.2836,       541,
   36.3081,       543,
   36.3326,       494,
   36.3572,       511,
   36.3817,       482,
   36.4062,       524,
   36.4308,       491,
   36.4553,       497,
   36.4798,       468,
   36.5044,       446,
   36.5289,       453,
   36.5535,       483,
    36.578,       496,
   36.6025,       447,
   36.6271,       443,
   36.6516,       449,
   36.6761,       429,
   36.7007,       424,
   36.7252,       469,
   36.7497,       478,
   36.7743,       454,
   36.7988,       483,
   36.8233,       435,
   36.8479,       449,
   36.8724,       442,
    36.897,       436,
   36.9215,       448,
    36.946,       455,
   36.9706,       412,
   36.9951,       429,
   37.0196,       433,
   37.0442,       433,
   37.0687,       458,
   37.0932,       430,
   37.1178,       475,
   37.1423,       443,
   37.1669,       414,
   37.1914,       395,
   37.2159,       434,
   37.2405,       464,
    37.265,       412,
   37.2895,       447,
   37.3141,       450,
   37.3386,       468,
   37.3631,       446,
   37.3877,       411,
   37.4122,       465,
   37.4368,       424,
   37.4613,       447,
   37.4858,       448,
   37.5104,       410,
   37.5349,       442,
   37.5594,       413,
    37.584,       418,
   37.6085,       388,
    37.633,       432,
   37.6576,       424,
   37.6821,       369,
   37.7066,       439,
   37.7312,       429,
   37.7557,       448,
   37.7803,       411,
   37.8048,       420,
   37.8293,       419,
   37.8539,       411,
   37.8784,       387,
   37.9029,       418,
   37.9275,       435,
    37.952,       444,
   37.9765,       379,
   38.0011,       419,
   38.0256,       403,
   38.0502,       395,
   38.0747,       376,
   38.0992,       395,
   38.1238,       408,
   38.1483,       384,
   38.1728,       431,
   38.1974,       379,
   38.2219,       437,
   38.2464,       396,
    38.271,       390,
   38.2955,       408,
   38.3201,       407,
   38.3446,       404,
   38.3691,       384,
   38.3937,       396,
   38.4182,       414,
   38.4427,       353,
   38.4673,       369,
   38.4918,       399,
   38.5163,       419,
   38.5409,       362,
   38.5654,       397,
   38.5899,       420,
   38.6145,       412,
    38.639,       405,
   38.6636,       389,
   38.6881,       397,
   38.7126,       367,
   38.7372,       377,
   38.7617,       397,
   38.7862,       377,
   38.8108,       394,
   38.8353,       428,
   38.8598,       365,
   38.8844,       401,
   38.9089,       420,
   38.9335,       425,
    38.958,       410,
   38.9825,       393,
   39.0071,       400,
   39.0316,       381,
   39.0561,       382,
   39.0807,       408,
   39.1052,       437,
   39.1297,       390,
   39.1543,       372,
   39.1788,       433,
   39.2034,       410,
   39.2279,       444,
   39.2524,       385,
    39.277,       408,
   39.3015,       432,
    39.326,       386,
   39.3506,       417,
   39.3751,       407,
   39.3996,       403,
   39.4242,       432,
   39.4487,       459,
   39.4732,       410,
   39.4978,       469,
   39.5223,       447,
   39.5469,       435,
   39.5714,       437,
   39.5959,       453,
   39.6205,       470,
    39.645,       426,
   39.6695,       433,
   39.6941,       459,
   39.7186,       497,
   39.7431,       419,
   39.7677,       417,
   39.7922,       426,
   39.8168,       457,
   39.8413,       380,
   39.8658,       444,
   39.8904,       416,
   39.9149,       399,
   39.9394,       437,
    39.964,       463,
   39.9885,       450,
