;RAW4.00
[RawHeader]
Date=07/26/2021
EstimatedTotalTime=633.805
FurtherDQLReading=0
HardwareIndicator=65519
MeasuredTotalTime=633.805
MeasurementFlag=1
NumberOfMeasuredRanges=1
NumberOfRanges=1
Time=16:00:35

[VarInfo]
Type=USER
Flags=0
Value=Lab Manager

[VarInfo]
Type=SAMPLEID
Flags=0
Value=

[VarInfo]
Type=COMMENT
Flags=0
Value=

[VarInfo]
Type=UTF
Flags=0
Value=

[VarInfo]
Type=CREATOR
Flags=0
Value=BrmlToV4Converter

[VarInfo]
Type=CREATOR_VERSION
Flags=0
Value=7.3.1.0

[HardwareConfiguration]
AbsorptionFactor=9999
ActivateAbsorber=0
Alpha1=0.7093
Alpha2=0.71359
AlphaAverage=0.71073
AlphaRatio=0.5
Analyzer=0
Anode=Mo
AntiScatteringSlit=18
BeamOpticsFlags=0
Beta=0.63229
BetaRelativeIntensity=0
DeactivateAbsorber=0
DetectorSlit=9999
DivergenceSlit=0.2
GoniometerControl=0
GoniometerDiameter=560
GoniometerModel=512
GoniometerStage=7
Monochromator=0
NearSampleSlit=9999
PrimarySollerSlit=2.5
SampleChanger=0
SecondSollerSlit=9999
SynchronousAxis=0
ThinFilmAttachment=9999
WaveUnit=A

[RangeHeader]
ActuallyUsedLambda=0.71073
AdditionalDetectorMask=257
DataRecordLength=4
DelayTime=0
DisplayPlaneNumber=0
EstimatedScanTime=634
ExtraParametersMask=0
GeneratorCurrent=40
GeneratorVoltage=50
Increment=0.0245361
Increment3=0
NumberOfCompletedData=1427
NumberOfCounts=1
NumberOfDetectors=0
NumberOfDrives=2
NumberOfEncoderDrives=0
NumberOfMeasuredData=1427
NumberOfVaryingParameters=0
RangeStartTime=0
RotationSpeed=60
ScanMode=1
ScanType=Locked Coupled
SimulatedMeasConditions=0
SlitChangerIn=0
SmootingWidth=0
Start=5
Steps=1427
SynchronousRotation=0
Time=76.8

[VarInfo]
Type=PSD_DISCRIM
Flags=0
Value=0.488;0.518

[PSD]
ActualTwoTheta=9999
FirstUsedChannel=0
FixedPSD=0
PSDOpening=2.94433
PSDType=5

[Drive]
DriveFlags=1
DriveName=2Theta
DriveNumber=2
DriveOffset=0
OffsetIndex=0
OscillationAmplitude=0
OscillationSpeed=0
StartPosition=5

[Drive]
DriveFlags=1
DriveName=Theta
DriveNumber=1
DriveOffset=0
OffsetIndex=0
OscillationAmplitude=0
OscillationSpeed=0
StartPosition=2.5

[Data]
     Angle,       PSD,
         5,       173,
   5.02454,       236,
   5.04907,       137,
   5.07361,       264,
   5.09814,       218,
   5.12268,       169,
   5.14722,       252,
   5.17175,       153,
   5.19629,       258,
   5.22083,       217,
   5.24536,       181,
    5.2699,       298,
   5.29443,       148,
   5.31897,       317,
   5.34351,       238,
   5.36804,       216,
   5.39258,       304,
   5.41711,       139,
   5.44165,       319,
   5.46619,       270,
   5.49072,       218,
   5.51526,       329,
   5.53979,       161,
   5.56433,       285,
   5.58887,       230,
    5.6134,       235,
   5.63794,       290,
   5.66248,       137,
   5.68701,       297,
   5.71155,       226,
   5.73608,       208,
   5.76062,       317,
   5.78516,       162,
   5.80969,       279,
   5.83423,       240,
   5.85876,       215,
    5.8833,       283,
   5.90784,       145,
   5.93237,       301,
   5.95691,       225,
   5.98144,       203,
   6.00598,       286,
   6.03052,       153,
   6.05505,       259,
   6.07959,       184,
   6.10413,       199,
   6.12866,       262,
    6.1532,       154,
   6.17773,       224,
   6.20227,       206,
   6.22681,       178,
   6.25134,       273,
   6.27588,       142,
   6.30041,       229,
   6.32495,       195,
   6.34949,       168,
   6.37402,       256,
   6.39856,       135,
    6.4231,       220,
   6.44763,       191,
   6.47217,       154,
    6.4967,       235,
   6.52124,       132,
   6.54578,       246,
   6.57031,       189,
   6.59485,       171,
   6.61938,       241,
   6.64392,       144,
   6.66846,       213,
   6.69299,       207,
   6.71753,       158,
   6.74206,       255,
    6.7666,       150,
   6.79114,       216,
   6.81567,       201,
   6.84021,       149,
   6.86475,       269,
   6.88928,       131,
   6.91382,       220,
   6.93835,       201,
   6.96289,       185,
   6.98743,       228,
   7.01196,       130,
    7.0365,       193,
   7.06103,       210,
   7.08557,       186,
   7.11011,       217,
   7.13464,       136,
   7.15918,       222,
   7.18371,       182,
   7.20825,       141,
   7.23279,       215,
   7.25732,       121,
   7.28186,       220,
    7.3064,       194,
   7.33093,       155,
   7.35547,       214,
      7.38,       131,
   7.40454,       219,
   7.42908,       186,
   7.45361,       167,
   7.47815,       214,
   7.50268,       148,
   7.52722,       215,
   7.55176,       187,
   7.57629,       155,
   7.60083,       222,
   7.62536,       151,
    7.6499,       233,
   7.67444,       218,
   7.69897,       157,
   7.72351,       219,
   7.74805,       119,
   7.77258,       198,
   7.79712,       166,
   7.82165,       160,
   7.84619,       240,
   7.87073,       139,
   7.89526,       224,
    7.9198,       190,
   7.94433,       176,
   7.96887,       272,
   7.99341,       142,
   8.01794,       248,
   8.04248,       220,
   8.06702,       176,
   8.09155,       249,
   8.11609,       129,
   8.14062,       249,
   8.16516,       200,
    8.1897,       177,
   8.21423,       254,
   8.23877,       148,
    8.2633,       259,
   8.28784,       208,
   8.31238,       181,
   8.33691,       256,
   8.36145,       163,
   8.38598,       265,
   8.41052,       224,
   8.43506,       208,
   8.45959,       278,
   8.48413,       164,
   8.50867,       250,
    8.5332,       220,
   8.55774,       211,
   8.58227,       302,
   8.60681,       166,
   8.63135,       263,
   8.65588,       258,
   8.68042,       201,
   8.70495,       279,
   8.72949,       192,
   8.75403,       280,
   8.77856,       249,
    8.8031,       222,
   8.82763,       285,
   8.85217,       195,
   8.87671,       291,
   8.90124,       227,
   8.92578,       224,
   8.95032,       299,
   8.97485,       193,
   8.99939,       298,
   9.02392,       241,
   9.04846,       228,
     9.073,       328,
   9.09753,       205,
   9.12207,       344,
    9.1466,       249,
   9.17114,       244,
   9.19568,       325,
   9.22021,       257,
   9.24475,       325,
   9.26929,       288,
   9.29382,       268,
   9.31836,       351,
   9.34289,       252,
   9.36743,       400,
   9.39197,       314,
    9.4165,       323,
   9.44104,       419,
   9.46557,       301,
   9.49011,       417,
   9.51465,       371,
   9.53918,       393,
   9.56372,       507,
   9.58825,       411,
   9.61279,       528,
   9.63733,       570,
   9.66186,       549,
    9.6864,       699,
   9.71094,       545,
   9.73547,       648,
   9.76001,       597,
   9.78454,       518,
   9.80908,       584,
   9.83362,       522,
   9.85815,       590,
   9.88269,       579,
   9.90722,       601,
   9.93176,       701,
    9.9563,       625,
   9.98083,       679,
   10.0054,       670,
   10.0299,       638,
   10.0544,       709,
    10.079,       636,
   10.1035,       758,
    10.128,       754,
   10.1526,       684,
   10.1771,       822,
   10.2017,       692,
   10.2262,       809,
   10.2507,       806,
   10.2753,       773,
   10.2998,       820,
   10.3243,       832,
   10.3489,       850,
   10.3734,       839,
   10.3979,       890,
   10.4225,       940,
    10.447,       858,
   10.4716,       941,
   10.4961,       950,
   10.5206,       927,
   10.5452,      1027,
   10.5697,       979,
   10.5942,      1059,
   10.6188,      1041,
   10.6433,      1089,
   10.6678,      1089,
   10.6924,      1015,
   10.7169,      1137,
   10.7415,      1100,
    10.766,      1070,
   10.7905,      1108,
   10.8151,      1062,
   10.8396,      1103,
   10.8641,      1059,
   10.8887,      1098,
   10.9132,      1084,
   10.9377,      1124,
   10.9623,      1113,
   10.9868,      1132,
   11.0113,      1157,
   11.0359,      1168,
   11.0604,      1279,
    11.085,      1263,
   11.1095,      1176,
    11.134,      1229,
   11.1586,      1259,
   11.1831,      1240,
   11.2076,      1272,
   11.2322,      1361,
   11.2567,      1309,
   11.2812,      1380,
   11.3058,      1485,
   11.3303,      1580,
   11.3549,      1646,
   11.3794,      1916,
   11.4039,      1971,
   11.4285,      2265,
    11.453,      2190,
   11.4775,      2157,
   11.5021,      2029,
   11.5266,      1913,
   11.5511,      1695,
   11.5757,      1630,
   11.6002,      1548,
   11.6248,      1402,
   11.6493,      1368,
   11.6738,      1325,
   11.6984,      1314,
   11.7229,      1363,
   11.7474,      1282,
    11.772,      1360,
   11.7965,      1296,
    11.821,      1314,
   11.8456,      1381,
   11.8701,      1281,
   11.8946,      1286,
   11.9192,      1257,
   11.9437,      1253,
   11.9683,      1347,
   11.9928,      1347,
   12.0173,      1370,
   12.0419,      1378,
   12.0664,      1298,
   12.0909,      1295,
   12.1155,      1384,
     12.14,      1388,
   12.1645,      1230,
   12.1891,      1392,
   12.2136,      1429,
   12.2382,      1436,
   12.2627,      1529,
   12.2872,      1549,
   12.3118,      1758,
   12.3363,      1944,
   12.3608,      2244,
   12.3854,      2415,
   12.4099,      2584,
   12.4344,      2743,
    12.459,      2620,
   12.4835,      2397,
   12.5081,      2248,
   12.5326,      2099,
   12.5571,      1769,
   12.5817,      1653,
   12.6062,      1472,
   12.6307,      1407,
   12.6553,      1353,
   12.6798,      1396,
   12.7043,      1259,
   12.7289,      1287,
   12.7534,      1271,
    12.778,      1275,
   12.8025,      1213,
    12.827,      1219,
   12.8516,      1228,
   12.8761,      1199,
   12.9006,      1251,
   12.9252,      1229,
   12.9497,      1252,
   12.9742,      1151,
   12.9988,      1191,
   13.0233,      1193,
   13.0478,      1129,
   13.0724,      1213,
   13.0969,      1167,
   13.1215,      1207,
    13.146,      1205,
   13.1705,      1130,
   13.1951,      1190,
   13.2196,      1187,
   13.2441,      1230,
   13.2687,      1197,
   13.2932,      1242,
   13.3177,      1209,
   13.3423,      1262,
   13.3668,      1316,
   13.3914,      1362,
   13.4159,      1466,
   13.4404,      1810,
    13.465,      2122,
   13.4895,      2240,
    13.514,      1944,
   13.5386,      1764,
   13.5631,      1740,
   13.5876,      1497,
   13.6122,      1334,
   13.6367,      1258,
   13.6613,      1205,
   13.6858,      1123,
   13.7103,      1121,
   13.7349,      1137,
   13.7594,      1096,
   13.7839,      1091,
   13.8085,      1141,
    13.833,      1140,
   13.8575,      1128,
   13.8821,      1102,
   13.9066,      1124,
   13.9311,      1073,
   13.9557,      1137,
   13.9802,      1087,
   14.0048,      1077,
   14.0293,      1106,
   14.0538,      1099,
   14.0784,      1039,
   14.1029,      1067,
   14.1274,      1031,
    14.152,      1076,
   14.1765,      1069,
    14.201,      1091,
   14.2256,      1032,
   14.2501,      1060,
   14.2747,      1096,
   14.2992,      1044,
   14.3237,       981,
   14.3483,      1018,
   14.3728,      1070,
   14.3973,      1069,
   14.4219,      1083,
   14.4464,       992,
   14.4709,      1123,
   14.4955,      1088,
     14.52,      1074,
   14.5446,      1040,
   14.5691,      1004,
   14.5936,       990,
   14.6182,      1043,
   14.6427,      1080,
   14.6672,      1098,
   14.6918,      1064,
   14.7163,      1103,
   14.7408,      1044,
   14.7654,      1115,
   14.7899,      1154,
   14.8144,      1197,
    14.839,      1235,
   14.8635,      1320,
   14.8881,      1521,
   14.9126,      1653,
   14.9371,      1895,
   14.9617,      1962,
   14.9862,      2071,
   15.0107,      2038,
   15.0353,      1951,
   15.0598,      1855,
   15.0843,      1674,
   15.1089,      1623,
   15.1334,      1407,
    15.158,      1284,
   15.1825,      1171,
    15.207,      1118,
   15.2316,      1053,
   15.2561,       978,
   15.2806,      1045,
   15.3052,       998,
   15.3297,       982,
   15.3542,       988,
   15.3788,       960,
   15.4033,       961,
   15.4279,       974,
   15.4524,       896,
   15.4769,       900,
   15.5015,       893,
    15.526,       906,
   15.5505,       897,
   15.5751,       903,
   15.5996,       923,
   15.6241,       868,
   15.6487,       912,
   15.6732,       876,
   15.6977,       875,
   15.7223,       872,
   15.7468,       820,
   15.7714,       828,
   15.7959,       810,
   15.8204,       784,
    15.845,       843,
   15.8695,       834,
    15.894,       890,
   15.9186,       780,
   15.9431,       810,
   15.9676,       789,
   15.9922,       787,
   16.0167,       764,
   16.0413,       817,
   16.0658,       819,
   16.0903,       782,
   16.1149,       760,
   16.1394,       805,
   16.1639,       813,
   16.1885,       794,
    16.213,       807,
   16.2375,       797,
   16.2621,       807,
   16.2866,       757,
   16.3112,       798,
   16.3357,       791,
   16.3602,       821,
   16.3848,       836,
   16.4093,       914,
   16.4338,       840,
   16.4584,       849,
   16.4829,       806,
   16.5074,       794,
    16.532,       822,
   16.5565,       762,
    16.581,       773,
   16.6056,       758,
   16.6301,       703,
   16.6547,       726,
   16.6792,       762,
   16.7037,       738,
   16.7283,       719,
   16.7528,       747,
   16.7773,       700,
   16.8019,       726,
   16.8264,       746,
   16.8509,       710,
   16.8755,       689,
      16.9,       727,
   16.9246,       689,
   16.9491,       697,
   16.9736,       702,
   16.9982,       686,
   17.0227,       696,
   17.0472,       701,
   17.0718,       713,
   17.0963,       675,
   17.1208,       730,
   17.1454,       703,
   17.1699,       722,
   17.1945,       695,
    17.219,       732,
   17.2435,       686,
   17.2681,       685,
   17.2926,       679,
   17.3171,       707,
   17.3417,       711,
   17.3662,       668,
   17.3907,       691,
   17.4153,       713,
   17.4398,       672,
   17.4643,       699,
   17.4889,       695,
   17.5134,       757,
    17.538,       741,
   17.5625,       750,
    17.587,       751,
   17.6116,       750,
   17.6361,       747,
   17.6606,       785,
   17.6852,       826,
   17.7097,       749,
   17.7342,       761,
   17.7588,       769,
   17.7833,       789,
   17.8079,       784,
   17.8324,       810,
   17.8569,       843,
   17.8815,       809,
    17.906,       958,
   17.9305,       881,
   17.9551,       865,
   17.9796,       844,
   18.0041,       844,
   18.0287,       811,
   18.0532,       839,
   18.0778,       761,
   18.1023,       779,
   18.1268,       762,
   18.1514,       758,
   18.1759,       717,
   18.2004,       724,
    18.225,       749,
   18.2495,       665,
    18.274,       748,
   18.2986,       688,
   18.3231,       661,
   18.3476,       694,
   18.3722,       726,
   18.3967,       682,
   18.4213,       710,
   18.4458,       709,
   18.4703,       740,
   18.4949,       772,
   18.5194,       720,
   18.5439,       701,
   18.5685,       738,
    18.593,       729,
   18.6175,       735,
   18.6421,       721,
   18.6666,       667,
   18.6912,       740,
   18.7157,       721,
   18.7402,       757,
   18.7648,       706,
   18.7893,       629,
   18.8138,       696,
   18.8384,       734,
   18.8629,       715,
   18.8874,       721,
    18.912,       685,
   18.9365,       743,
   18.9611,       749,
   18.9856,       731,
   19.0101,       689,
   19.0347,       740,
   19.0592,       760,
   19.0837,       786,
   19.1083,       732,
   19.1328,       722,
   19.1573,       760,
   19.1819,       731,
   19.2064,       767,
    19.231,       711,
   19.2555,       720,
     19.28,       753,
   19.3046,       800,
   19.3291,       782,
   19.3536,       767,
   19.3782,       808,
   19.4027,       806,
   19.4272,       835,
   19.4518,       808,
   19.4763,       771,
   19.5008,       799,
   19.5254,       829,
   19.5499,       910,
   19.5745,       883,
    19.599,       837,
   19.6235,       737,
   19.6481,       839,
   19.6726,       858,
   19.6971,       934,
   19.7217,       934,
   19.7462,       996,
   19.7707,      1016,
   19.7953,      1139,
   19.8198,      1146,
   19.8444,      1201,
   19.8689,      1251,
   19.8934,      1202,
    19.918,      1140,
   19.9425,      1170,
    19.967,      1068,
   19.9916,      1006,
   20.0161,       913,
   20.0406,       939,
   20.0652,       812,
   20.0897,       803,
   20.1143,       769,
   20.1388,       720,
   20.1633,       728,
   20.1879,       753,
   20.2124,       695,
   20.2369,       684,
   20.2615,       667,
    20.286,       723,
   20.3105,       690,
   20.3351,       704,
   20.3596,       684,
   20.3841,       686,
   20.4087,       683,
   20.4332,       669,
   20.4578,       723,
   20.4823,       648,
   20.5068,       623,
   20.5314,       669,
   20.5559,       626,
   20.5804,       661,
    20.605,       681,
   20.6295,       651,
    20.654,       650,
   20.6786,       713,
   20.7031,       658,
   20.7277,       711,
   20.7522,       652,
   20.7767,       675,
   20.8013,       661,
   20.8258,       654,
   20.8503,       710,
   20.8749,       672,
   20.8994,       690,
   20.9239,       670,
   20.9485,       671,
    20.973,       687,
   20.9976,       676,
   21.0221,       711,
   21.0466,       662,
   21.0712,       672,
   21.0957,       706,
   21.1202,       675,
   21.1448,       705,
   21.1693,       716,
   21.1938,       718,
   21.2184,       768,
   21.2429,       752,
   21.2674,       830,
    21.292,       774,
   21.3165,       823,
   21.3411,       786,
   21.3656,       761,
   21.3901,       798,
   21.4147,       819,
   21.4392,       923,
   21.4637,       825,
   21.4883,       767,
   21.5128,       751,
   21.5373,       713,
   21.5619,       754,
   21.5864,       762,
    21.611,       707,
   21.6355,       693,
     21.66,       731,
   21.6846,       715,
   21.7091,       796,
   21.7336,       743,
   21.7582,       720,
   21.7827,       781,
   21.8072,       766,
   21.8318,       802,
   21.8563,       891,
   21.8809,       898,
   21.9054,       833,
   21.9299,       790,
   21.9545,       819,
    21.979,       822,
   22.0035,       817,
   22.0281,       827,
   22.0526,       842,
   22.0771,       873,
   22.1017,       867,
   22.1262,       817,
   22.1507,       856,
   22.1753,       853,
   22.1998,       797,
   22.2244,       759,
   22.2489,       772,
   22.2734,       779,
    22.298,       814,
   22.3225,       747,
    22.347,       777,
   22.3716,       820,
   22.3961,       795,
   22.4206,       860,
   22.4452,       941,
   22.4697,       985,
   22.4943,      1062,
   22.5188,      1149,
   22.5433,      1108,
   22.5679,      1090,
   22.5924,      1013,
   22.6169,      1010,
   22.6415,       910,
    22.666,       943,
   22.6905,       880,
   22.7151,       808,
   22.7396,       784,
   22.7642,       770,
   22.7887,       778,
   22.8132,       679,
   22.8378,       648,
   22.8623,       713,
   22.8868,       635,
   22.9114,       690,
   22.9359,       693,
   22.9604,       664,
    22.985,       677,
   23.0095,       684,
    23.034,       658,
   23.0586,       643,
   23.0831,       648,
   23.1077,       669,
   23.1322,       643,
   23.1567,       654,
   23.1813,       654,
   23.2058,       630,
   23.2303,       677,
   23.2549,       686,
   23.2794,       640,
   23.3039,       640,
   23.3285,       655,
    23.353,       623,
   23.3776,       671,
   23.4021,       728,
   23.4266,       632,
   23.4512,       637,
   23.4757,       651,
   23.5002,       635,
   23.5248,       649,
   23.5493,       606,
   23.5738,       659,
   23.5984,       632,
   23.6229,       670,
   23.6475,       644,
    23.672,       601,
   23.6965,       603,
   23.7211,       633,
   23.7456,       675,
   23.7701,       644,
   23.7947,       636,
   23.8192,       615,
   23.8437,       611,
   23.8683,       644,
   23.8928,       629,
   23.9173,       610,
   23.9419,       617,
   23.9664,       619,
    23.991,       675,
   24.0155,       663,
     24.04,       671,
   24.0646,       658,
   24.0891,       654,
   24.1136,       671,
   24.1382,       653,
   24.1627,       594,
   24.1872,       648,
   24.2118,       641,
   24.2363,       702,
   24.2609,       593,
   24.2854,       657,
   24.3099,       617,
   24.3345,       637,
    24.359,       624,
   24.3835,       686,
   24.4081,       663,
   24.4326,       593,
   24.4571,       681,
   24.4817,       618,
   24.5062,       653,
   24.5308,       656,
   24.5553,       641,
   24.5798,       662,
   24.6044,       678,
   24.6289,       689,
   24.6534,       659,
    24.678,       694,
   24.7025,       681,
    24.727,       697,
   24.7516,       681,
   24.7761,       731,
   24.8006,       718,
   24.8252,       739,
   24.8497,       789,
   24.8743,       760,
   24.8988,       829,
   24.9233,       832,
   24.9479,       823,
   24.9724,       797,
   24.9969,       796,
   25.0215,       833,
    25.046,       828,
   25.0705,       780,
   25.0951,       760,
   25.1196,       749,
   25.1442,       704,
   25.1687,       730,
   25.1932,       741,
   25.2178,       727,
   25.2423,       728,
   25.2668,       687,
   25.2914,       739,
   25.3159,       683,
   25.3404,       698,
    25.365,       721,
   25.3895,       678,
   25.4141,       745,
   25.4386,       680,
   25.4631,       688,
   25.4877,       735,
   25.5122,       719,
   25.5367,       706,
   25.5613,       701,
   25.5858,       742,
   25.6103,       720,
   25.6349,       715,
   25.6594,       716,
   25.6839,       740,
   25.7085,       707,
    25.733,       701,
   25.7576,       655,
   25.7821,       745,
   25.8066,       704,
   25.8312,       656,
   25.8557,       712,
   25.8802,       681,
   25.9048,       710,
   25.9293,       673,
   25.9538,       638,
   25.9784,       577,
   26.0029,       662,
   26.0275,       678,
    26.052,       658,
   26.0765,       666,
   26.1011,       643,
   26.1256,       726,
   26.1501,       630,
   26.1747,       708,
   26.1992,       694,
   26.2237,       620,
   26.2483,       651,
   26.2728,       658,
   26.2974,       662,
   26.3219,       682,
   26.3464,       672,
    26.371,       683,
   26.3955,       654,
     26.42,       699,
   26.4446,       728,
   26.4691,       723,
   26.4936,       701,
   26.5182,       688,
   26.5427,       730,
   26.5673,       661,
   26.5918,       705,
   26.6163,       746,
   26.6409,       685,
   26.6654,       721,
   26.6899,       715,
   26.7145,       750,
    26.739,       680,
   26.7635,       678,
   26.7881,       778,
   26.8126,       741,
   26.8371,       697,
   26.8617,       678,
   26.8862,       761,
   26.9108,       738,
   26.9353,       799,
   26.9598,       730,
   26.9844,       764,
   27.0089,       746,
   27.0334,       712,
    27.058,       690,
   27.0825,       779,
    27.107,       745,
   27.1316,       748,
   27.1561,       747,
   27.1807,       726,
   27.2052,       712,
   27.2297,       722,
   27.2543,       717,
   27.2788,       744,
   27.3033,       723,
   27.3279,       724,
   27.3524,       709,
   27.3769,       659,
   27.4015,       697,
    27.426,       671,
   27.4506,       656,
   27.4751,       714,
   27.4996,       721,
   27.5242,       678,
   27.5487,       655,
   27.5732,       669,
   27.5978,       717,
   27.6223,       689,
   27.6468,       693,
   27.6714,       674,
   27.6959,       654,
   27.7204,       708,
    27.745,       710,
   27.7695,       693,
   27.7941,       694,
   27.8186,       738,
   27.8431,       703,
   27.8677,       646,
   27.8922,       724,
   27.9167,       718,
   27.9413,       637,
   27.9658,       718,
   27.9903,       737,
   28.0149,       700,
   28.0394,       675,
    28.064,       686,
   28.0885,       688,
    28.113,       708,
   28.1376,       716,
   28.1621,       674,
   28.1866,       698,
   28.2112,       674,
   28.2357,       676,
   28.2602,       689,
   28.2848,       697,
   28.3093,       693,
   28.3339,       699,
   28.3584,       671,
   28.3829,       693,
   28.4075,       725,
    28.432,       743,
   28.4565,       763,
   28.4811,       685,
   28.5056,       664,
   28.5301,       712,
   28.5547,       746,
   28.5792,       694,
   28.6037,       763,
   28.6283,       701,
   28.6528,       687,
   28.6774,       677,
   28.7019,       675,
   28.7264,       646,
    28.751,       685,
   28.7755,       705,
      28.8,       752,
   28.8246,       731,
   28.8491,       748,
   28.8736,       729,
   28.8982,       684,
   28.9227,       662,
   28.9473,       763,
   28.9718,       712,
   28.9963,       719,
   29.0209,       721,
   29.0454,       702,
   29.0699,       636,
   29.0945,       679,
    29.119,       665,
   29.1435,       675,
   29.1681,       661,
   29.1926,       685,
   29.2172,       688,
   29.2417,       649,
   29.2662,       702,
   29.2908,       683,
   29.3153,       688,
   29.3398,       682,
   29.3644,       673,
   29.3889,       677,
   29.4134,       673,
    29.438,       613,
   29.4625,       676,
    29.487,       635,
   29.5116,       677,
   29.5361,       669,
   29.5607,       650,
   29.5852,       635,
   29.6097,       626,
   29.6343,       698,
   29.6588,       608,
   29.6833,       680,
   29.7079,       648,
   29.7324,       674,
   29.7569,       643,
   29.7815,       645,
    29.806,       622,
   29.8306,       618,
   29.8551,       642,
   29.8796,       726,
   29.9042,       658,
   29.9287,       667,
   29.9532,       685,
   29.9778,       660,
   30.0023,       687,
   30.0268,       684,
   30.0514,       618,
   30.0759,       688,
   30.1005,       663,
    30.125,       631,
   30.1495,       635,
   30.1741,       644,
   30.1986,       656,
   30.2231,       710,
   30.2477,       685,
   30.2722,       643,
   30.2967,       680,
   30.3213,       693,
   30.3458,       667,
   30.3703,       682,
   30.3949,       693,
   30.4194,       667,
    30.444,       681,
   30.4685,       642,
    30.493,       692,
   30.5176,       651,
   30.5421,       647,
   30.5666,       701,
   30.5912,       645,
   30.6157,       682,
   30.6402,       642,
   30.6648,       653,
   30.6893,       648,
   30.7139,       622,
   30.7384,       671,
   30.7629,       701,
   30.7875,       637,
    30.812,       685,
   30.8365,       639,
   30.8611,       658,
   30.8856,       626,
   30.9101,       677,
   30.9347,       641,
   30.9592,       630,
   30.9838,       624,
   31.0083,       616,
   31.0328,       647,
   31.0574,       674,
   31.0819,       645,
   31.1064,       648,
    31.131,       581,
   31.1555,       621,
     31.18,       643,
   31.2046,       570,
   31.2291,       613,
   31.2536,       652,
   31.2782,       629,
   31.3027,       645,
   31.3273,       621,
   31.3518,       664,
   31.3763,       609,
   31.4009,       636,
   31.4254,       698,
   31.4499,       674,
   31.4745,       649,
    31.499,       655,
   31.5235,       650,
   31.5481,       660,
   31.5726,       683,
   31.5972,       697,
   31.6217,       632,
   31.6462,       687,
   31.6708,       660,
   31.6953,       612,
   31.7198,       686,
   31.7444,       597,
   31.7689,       654,
   31.7934,       668,
    31.818,       637,
   31.8425,       691,
   31.8671,       665,
   31.8916,       642,
   31.9161,       647,
   31.9407,       672,
   31.9652,       619,
   31.9897,       631,
   32.0143,       661,
   32.0388,       635,
   32.0633,       633,
   32.0879,       653,
   32.1124,       626,
   32.1369,       615,
   32.1615,       685,
    32.186,       612,
   32.2106,       633,
   32.2351,       579,
   32.2596,       603,
   32.2842,       657,
   32.3087,       611,
   32.3332,       604,
   32.3578,       620,
   32.3823,       596,
   32.4068,       612,
   32.4314,       632,
   32.4559,       572,
   32.4805,       603,
    32.505,       562,
   32.5295,       604,
   32.5541,       587,
   32.5786,       592,
   32.6031,       560,
   32.6277,       557,
   32.6522,       555,
   32.6767,       559,
   32.7013,       562,
   32.7258,       633,
   32.7504,       556,
   32.7749,       595,
   32.7994,       547,
    32.824,       559,
   32.8485,       572,
    32.873,       611,
   32.8976,       601,
   32.9221,       586,
   32.9466,       608,
   32.9712,       596,
   32.9957,       562,
   33.0203,       537,
   33.0448,       560,
   33.0693,       577,
   33.0939,       605,
   33.1184,       555,
   33.1429,       598,
   33.1675,       557,
    33.192,       602,
   33.2165,       569,
   33.2411,       596,
   33.2656,       599,
   33.2901,       666,
   33.3147,       595,
   33.3392,       611,
   33.3638,       620,
   33.3883,       605,
   33.4128,       596,
   33.4374,       575,
   33.4619,       586,
   33.4864,       591,
    33.511,       610,
   33.5355,       561,
     33.56,       561,
   33.5846,       599,
   33.6091,       553,
   33.6337,       582,
   33.6582,       516,
   33.6827,       531,
   33.7073,       542,
   33.7318,       577,
   33.7563,       556,
   33.7809,       568,
   33.8054,       558,
   33.8299,       555,
   33.8545,       558,
    33.879,       580,
   33.9036,       566,
   33.9281,       558,
   33.9526,       522,
   33.9772,       588,
   34.0017,       537,
   34.0262,       570,
   34.0508,       524,
   34.0753,       523,
   34.0998,       513,
   34.1244,       553,
   34.1489,       545,
   34.1734,       540,
    34.198,       554,
   34.2225,       568,
   34.2471,       538,
   34.2716,       524,
   34.2961,       564,
   34.3207,       562,
   34.3452,       572,
   34.3697,       541,
   34.3943,       510,
   34.4188,       564,
   34.4433,       536,
   34.4679,       554,
   34.4924,       548,
    34.517,       560,
   34.5415,       476,
    34.566,       528,
   34.5906,       505,
   34.6151,       556,
   34.6396,       578,
   34.6642,       509,
   34.6887,       545,
   34.7132,       516,
   34.7378,       552,
   34.7623,       557,
   34.7869,       552,
   34.8114,       578,
   34.8359,       524,
   34.8605,       594,
    34.885,       549,
   34.9095,       606,
   34.9341,       592,
   34.9586,       576,
   34.9831,       590,
   35.0077,       529,
   35.0322,       555,
   35.0567,       528,
   35.0813,       547,
   35.1058,       549,
   35.1304,       486,
   35.1549,       546,
   35.1794,       543,
    35.204,       549,
   35.2285,       535,
    35.253,       541,
   35.2776,       490,
   35.3021,       510,
   35.3266,       520,
   35.3512,       509,
   35.3757,       517,
   35.4003,       564,
   35.4248,       508,
   35.4493,       531,
   35.4739,       514,
   35.4984,       502,
   35.5229,       508,
   35.5475,       538,
    35.572,       547,
   35.5965,       544,
   35.6211,       544,
   35.6456,       552,
   35.6702,       537,
   35.6947,       509,
   35.7192,       557,
   35.7438,       535,
   35.7683,       556,
   35.7928,       524,
   35.8174,       503,
   35.8419,       545,
   35.8664,       550,
    35.891,       551,
   35.9155,       520,
     35.94,       525,
   35.9646,       550,
   35.9891,       521,
   36.0137,       503,
   36.0382,       542,
   36.0627,       531,
   36.0873,       516,
   36.1118,       552,
   36.1363,       548,
   36.1609,       551,
   36.1854,       519,
   36.2099,       513,
   36.2345,       506,
    36.259,       529,
   36.2836,       518,
   36.3081,       566,
   36.3326,       532,
   36.3572,       531,
   36.3817,       504,
   36.4062,       523,
   36.4308,       453,
   36.4553,       532,
   36.4798,       495,
   36.5044,       496,
   36.5289,       512,
   36.5535,       521,
    36.578,       456,
   36.6025,       449,
   36.6271,       503,
   36.6516,       509,
   36.6761,       497,
   36.7007,       479,
   36.7252,       460,
   36.7497,       470,
   36.7743,       453,
   36.7988,       458,
   36.8233,       465,
   36.8479,       411,
   36.8724,       475,
    36.897,       474,
   36.9215,       459,
    36.946,       432,
   36.9706,       486,
   36.9951,       498,
   37.0196,       477,
   37.0442,       457,
   37.0687,       443,
   37.0932,       477,
   37.1178,       431,
   37.1423,       423,
   37.1669,       458,
   37.1914,       460,
   37.2159,       464,
   37.2405,       451,
    37.265,       422,
   37.2895,       430,
   37.3141,       464,
   37.3386,       473,
   37.3631,       457,
   37.3877,       455,
   37.4122,       457,
   37.4368,       452,
   37.4613,       438,
   37.4858,       455,
   37.5104,       455,
   37.5349,       434,
   37.5594,       440,
    37.584,       456,
   37.6085,       436,
    37.633,       445,
   37.6576,       474,
   37.6821,       462,
   37.7066,       468,
   37.7312,       435,
   37.7557,       434,
   37.7803,       432,
   37.8048,       438,
   37.8293,       422,
   37.8539,       419,
   37.8784,       433,
   37.9029,       403,
   37.9275,       455,
    37.952,       397,
   37.9765,       417,
   38.0011,       424,
   38.0256,       433,
   38.0502,       405,
   38.0747,       401,
   38.0992,       399,
   38.1238,       443,
   38.1483,       412,
   38.1728,       402,
   38.1974,       405,
   38.2219,       425,
   38.2464,       407,
    38.271,       399,
   38.2955,       409,
   38.3201,       401,
   38.3446,       438,
   38.3691,       409,
   38.3937,       414,
   38.4182,       390,
   38.4427,       423,
   38.4673,       406,
   38.4918,       428,
   38.5163,       411,
   38.5409,       402,
   38.5654,       392,
   38.5899,       377,
   38.6145,       415,
    38.639,       422,
   38.6636,       422,
   38.6881,       418,
   38.7126,       418,
   38.7372,       426,
   38.7617,       428,
   38.7862,       414,
   38.8108,       404,
   38.8353,       405,
   38.8598,       438,
   38.8844,       432,
   38.9089,       426,
   38.9335,       435,
    38.958,       429,
   38.9825,       395,
   39.0071,       425,
   39.0316,       445,
   39.0561,       428,
   39.0807,       424,
   39.1052,       406,
   39.1297,       421,
   39.1543,       442,
   39.1788,       472,
   39.2034,       427,
   39.2279,       474,
   39.2524,       450,
    39.277,       414,
   39.3015,       417,
    39.326,       427,
   39.3506,       441,
   39.3751,       408,
   39.3996,       435,
   39.4242,       424,
   39.4487,       448,
   39.4732,       396,
   39.4978,       446,
   39.5223,       441,
   39.5469,       461,
   39.5714,       469,
   39.5959,       443,
   39.6205,       460,
    39.645,       474,
   39.6695,       452,
   39.6941,       451,
   39.7186,       483,
   39.7431,       439,
   39.7677,       476,
   39.7922,       462,
   39.8168,       460,
   39.8413,       457,
   39.8658,       465,
   39.8904,       482,
   39.9149,       417,
   39.9394,       425,
    39.964,       449,
   39.9885,       477,
