;RAW4.00
[RawHeader]
Date=07/26/2021
EstimatedTotalTime=633.556
FurtherDQLReading=0
HardwareIndicator=65519
MeasuredTotalTime=633.556
MeasurementFlag=1
NumberOfMeasuredRanges=1
NumberOfRanges=1
Time=16:14:48

[VarInfo]
Type=USER
Flags=0
Value=Lab Manager

[VarInfo]
Type=SAMPLEID
Flags=0
Value=

[VarInfo]
Type=COMMENT
Flags=0
Value=

[VarInfo]
Type=UTF
Flags=0
Value=

[VarInfo]
Type=CREATOR
Flags=0
Value=BrmlToV4Converter

[VarInfo]
Type=CREATOR_VERSION
Flags=0
Value=7.3.1.0

[HardwareConfiguration]
AbsorptionFactor=9999
ActivateAbsorber=0
Alpha1=0.7093
Alpha2=0.71359
AlphaAverage=0.71073
AlphaRatio=0.5
Analyzer=0
Anode=Mo
AntiScatteringSlit=18
BeamOpticsFlags=0
Beta=0.63229
BetaRelativeIntensity=0
DeactivateAbsorber=0
DetectorSlit=9999
DivergenceSlit=0.2
GoniometerControl=0
GoniometerDiameter=560
GoniometerModel=512
GoniometerStage=7
Monochromator=0
NearSampleSlit=9999
PrimarySollerSlit=2.5
SampleChanger=0
SecondSollerSlit=9999
SynchronousAxis=0
ThinFilmAttachment=9999
WaveUnit=A

[RangeHeader]
ActuallyUsedLambda=0.71073
AdditionalDetectorMask=257
DataRecordLength=4
DelayTime=0
DisplayPlaneNumber=0
EstimatedScanTime=634
ExtraParametersMask=0
GeneratorCurrent=40
GeneratorVoltage=50
Increment=0.0245361
Increment3=0
NumberOfCompletedData=1427
NumberOfCounts=1
NumberOfDetectors=0
NumberOfDrives=2
NumberOfEncoderDrives=0
NumberOfMeasuredData=1427
NumberOfVaryingParameters=0
RangeStartTime=0
RotationSpeed=60
ScanMode=1
ScanType=Locked Coupled
SimulatedMeasConditions=0
SlitChangerIn=0
SmootingWidth=0
Start=5
Steps=1427
SynchronousRotation=0
Time=76.8

[VarInfo]
Type=PSD_DISCRIM
Flags=0
Value=0.488;0.518

[PSD]
ActualTwoTheta=9999
FirstUsedChannel=0
FixedPSD=0
PSDOpening=2.94433
PSDType=5

[Drive]
DriveFlags=1
DriveName=2Theta
DriveNumber=2
DriveOffset=0
OffsetIndex=0
OscillationAmplitude=0
OscillationSpeed=0
StartPosition=5

[Drive]
DriveFlags=1
DriveName=Theta
DriveNumber=1
DriveOffset=0
OffsetIndex=0
OscillationAmplitude=0
OscillationSpeed=0
StartPosition=2.5

[Data]
     Angle,       PSD,
         5,       314,
   5.02454,       417,
   5.04907,       222,
   5.07361,       412,
   5.09814,       328,
   5.12268,       322,
   5.14722,       399,
   5.17175,       240,
   5.19629,       461,
   5.22083,       338,
   5.24536,       351,
    5.2699,       463,
   5.29443,       261,
   5.31897,       451,
   5.34351,       363,
   5.36804,       336,
   5.39258,       477,
   5.41711,       266,
   5.44165,       483,
   5.46619,       351,
   5.49072,       370,
   5.51526,       448,
   5.53979,       270,
   5.56433,       463,
   5.58887,       413,
    5.6134,       339,
   5.63794,       474,
   5.66248,       216,
   5.68701,       452,
   5.71155,       345,
   5.73608,       357,
   5.76062,       473,
   5.78516,       223,
   5.80969,       436,
   5.83423,       331,
   5.85876,       318,
    5.8833,       402,
   5.90784,       202,
   5.93237,       431,
   5.95691,       268,
   5.98144,       303,
   6.00598,       381,
   6.03052,       197,
   6.05505,       384,
   6.07959,       315,
   6.10413,       292,
   6.12866,       374,
    6.1532,       188,
   6.17773,       358,
   6.20227,       276,
   6.22681,       252,
   6.25134,       343,
   6.27588,       205,
   6.30041,       360,
   6.32495,       270,
   6.34949,       256,
   6.37402,       329,
   6.39856,       214,
    6.4231,       329,
   6.44763,       260,
   6.47217,       227,
    6.4967,       320,
   6.52124,       169,
   6.54578,       326,
   6.57031,       242,
   6.59485,       243,
   6.61938,       334,
   6.64392,       173,
   6.66846,       303,
   6.69299,       227,
   6.71753,       241,
   6.74206,       318,
    6.7666,       180,
   6.79114,       303,
   6.81567,       251,
   6.84021,       231,
   6.86475,       257,
   6.88928,       184,
   6.91382,       265,
   6.93835,       236,
   6.96289,       229,
   6.98743,       294,
   7.01196,       149,
    7.0365,       301,
   7.06103,       207,
   7.08557,       208,
   7.11011,       304,
   7.13464,       168,
   7.15918,       228,
   7.18371,       224,
   7.20825,       246,
   7.23279,       309,
   7.25732,       152,
   7.28186,       318,
    7.3064,       221,
   7.33093,       208,
   7.35547,       300,
      7.38,       160,
   7.40454,       286,
   7.42908,       215,
   7.45361,       203,
   7.47815,       296,
   7.50268,       146,
   7.52722,       276,
   7.55176,       234,
   7.57629,       207,
   7.60083,       289,
   7.62536,       168,
    7.6499,       290,
   7.67444,       223,
   7.69897,       204,
   7.72351,       264,
   7.74805,       152,
   7.77258,       292,
   7.79712,       215,
   7.82165,       243,
   7.84619,       308,
   7.87073,       163,
   7.89526,       309,
    7.9198,       252,
   7.94433,       245,
   7.96887,       308,
   7.99341,       196,
   8.01794,       279,
   8.04248,       250,
   8.06702,       226,
   8.09155,       304,
   8.11609,       196,
   8.14062,       290,
   8.16516,       250,
    8.1897,       230,
   8.21423,       316,
   8.23877,       187,
    8.2633,       302,
   8.28784,       257,
   8.31238,       250,
   8.33691,       310,
   8.36145,       182,
   8.38598,       307,
   8.41052,       253,
   8.43506,       258,
   8.45959,       298,
   8.48413,       172,
   8.50867,       329,
    8.5332,       246,
   8.55774,       245,
   8.58227,       357,
   8.60681,       211,
   8.63135,       311,
   8.65588,       272,
   8.68042,       291,
   8.70495,       353,
   8.72949,       229,
   8.75403,       324,
   8.77856,       280,
    8.8031,       285,
   8.82763,       374,
   8.85217,       234,
   8.87671,       366,
   8.90124,       302,
   8.92578,       253,
   8.95032,       360,
   8.97485,       227,
   8.99939,       369,
   9.02392,       311,
   9.04846,       268,
     9.073,       417,
   9.09753,       255,
   9.12207,       373,
    9.1466,       307,
   9.17114,       303,
   9.19568,       402,
   9.22021,       286,
   9.24475,       371,
   9.26929,       353,
   9.29382,       297,
   9.31836,       419,
   9.34289,       281,
   9.36743,       421,
   9.39197,       396,
    9.4165,       347,
   9.44104,       490,
   9.46557,       330,
   9.49011,       507,
   9.51465,       409,
   9.53918,       431,
   9.56372,       565,
   9.58825,       432,
   9.61279,       601,
   9.63733,       569,
   9.66186,       558,
    9.6864,       674,
   9.71094,       547,
   9.73547,       677,
   9.76001,       613,
   9.78454,       562,
   9.80908,       689,
   9.83362,       593,
   9.85815,       692,
   9.88269,       694,
   9.90722,       631,
   9.93176,       742,
    9.9563,       617,
   9.98083,       763,
   10.0054,       715,
   10.0299,       768,
   10.0544,       817,
    10.079,       746,
   10.1035,       840,
    10.128,       865,
   10.1526,       826,
   10.1771,       834,
   10.2017,       883,
   10.2262,      1007,
   10.2507,       893,
   10.2753,       947,
   10.2998,       937,
   10.3243,       926,
   10.3489,       997,
   10.3734,      1007,
   10.3979,       963,
   10.4225,      1044,
    10.447,       942,
   10.4716,      1075,
   10.4961,      1025,
   10.5206,      1023,
   10.5452,      1128,
   10.5697,      1086,
   10.5942,      1152,
   10.6188,      1229,
   10.6433,      1210,
   10.6678,      1175,
   10.6924,      1186,
   10.7169,      1203,
   10.7415,      1207,
    10.766,      1179,
   10.7905,      1235,
   10.8151,      1228,
   10.8396,      1264,
   10.8641,      1252,
   10.8887,      1187,
   10.9132,      1268,
   10.9377,      1236,
   10.9623,      1279,
   10.9868,      1232,
   11.0113,      1321,
   11.0359,      1348,
   11.0604,      1321,
    11.085,      1341,
   11.1095,      1341,
    11.134,      1340,
   11.1586,      1424,
   11.1831,      1384,
   11.2076,      1456,
   11.2322,      1482,
   11.2567,      1505,
   11.2812,      1554,
   11.3058,      1579,
   11.3303,      1710,
   11.3549,      1787,
   11.3794,      1881,
   11.4039,      2023,
   11.4285,      2146,
    11.453,      2114,
   11.4775,      1975,
   11.5021,      1947,
   11.5266,      1821,
   11.5511,      1680,
   11.5757,      1583,
   11.6002,      1526,
   11.6248,      1401,
   11.6493,      1587,
   11.6738,      1435,
   11.6984,      1502,
   11.7229,      1470,
   11.7474,      1557,
    11.772,      1472,
   11.7965,      1422,
    11.821,      1425,
   11.8456,      1438,
   11.8701,      1505,
   11.8946,      1458,
   11.9192,      1438,
   11.9437,      1457,
   11.9683,      1489,
   11.9928,      1433,
   12.0173,      1409,
   12.0419,      1485,
   12.0664,      1487,
   12.0909,      1465,
   12.1155,      1436,
     12.14,      1505,
   12.1645,      1484,
   12.1891,      1445,
   12.2136,      1550,
   12.2382,      1595,
   12.2627,      1678,
   12.2872,      1674,
   12.3118,      1849,
   12.3363,      1981,
   12.3608,      2256,
   12.3854,      2348,
   12.4099,      2465,
   12.4344,      2461,
    12.459,      2399,
   12.4835,      2155,
   12.5081,      2045,
   12.5326,      1819,
   12.5571,      1626,
   12.5817,      1569,
   12.6062,      1489,
   12.6307,      1482,
   12.6553,      1420,
   12.6798,      1411,
   12.7043,      1417,
   12.7289,      1386,
   12.7534,      1316,
    12.778,      1319,
   12.8025,      1517,
    12.827,      1321,
   12.8516,      1364,
   12.8761,      1318,
   12.9006,      1276,
   12.9252,      1359,
   12.9497,      1327,
   12.9742,      1300,
   12.9988,      1273,
   13.0233,      1349,
   13.0478,      1279,
   13.0724,      1415,
   13.0969,      1293,
   13.1215,      1348,
    13.146,      1272,
   13.1705,      1336,
   13.1951,      1254,
   13.2196,      1269,
   13.2441,      1321,
   13.2687,      1326,
   13.2932,      1294,
   13.3177,      1250,
   13.3423,      1354,
   13.3668,      1406,
   13.3914,      1411,
   13.4159,      1474,
   13.4404,      1724,
    13.465,      2024,
   13.4895,      2122,
    13.514,      1868,
   13.5386,      1691,
   13.5631,      1738,
   13.5876,      1558,
   13.6122,      1380,
   13.6367,      1294,
   13.6613,      1275,
   13.6858,      1253,
   13.7103,      1233,
   13.7349,      1212,
   13.7594,      1251,
   13.7839,      1157,
   13.8085,      1217,
    13.833,      1122,
   13.8575,      1178,
   13.8821,      1260,
   13.9066,      1193,
   13.9311,      1155,
   13.9557,      1186,
   13.9802,      1160,
   14.0048,      1160,
   14.0293,      1120,
   14.0538,      1169,
   14.0784,      1166,
   14.1029,      1114,
   14.1274,      1213,
    14.152,      1181,
   14.1765,      1114,
    14.201,      1109,
   14.2256,      1155,
   14.2501,      1122,
   14.2747,      1106,
   14.2992,      1112,
   14.3237,      1146,
   14.3483,      1149,
   14.3728,      1161,
   14.3973,      1109,
   14.4219,      1205,
   14.4464,      1219,
   14.4709,      2064,
   14.4955,      1391,
     14.52,      1226,
   14.5446,      1405,
   14.5691,      1471,
   14.5936,      1287,
   14.6182,      1122,
   14.6427,      1148,
   14.6672,      1159,
   14.6918,      1150,
   14.7163,      1094,
   14.7408,      1147,
   14.7654,      1167,
   14.7899,      1157,
   14.8144,      1271,
    14.839,      1348,
   14.8635,      1380,
   14.8881,      1463,
   14.9126,      1615,
   14.9371,      1673,
   14.9617,      1865,
   14.9862,      1929,
   15.0107,      1872,
   15.0353,      1676,
   15.0598,      1553,
   15.0843,      1579,
   15.1089,      1366,
   15.1334,      1274,
    15.158,      1225,
   15.1825,      1187,
    15.207,      1135,
   15.2316,      1040,
   15.2561,      1020,
   15.2806,      1079,
   15.3052,       982,
   15.3297,      1004,
   15.3542,       977,
   15.3788,       926,
   15.4033,       998,
   15.4279,       979,
   15.4524,       992,
   15.4769,      1005,
   15.5015,       947,
    15.526,       946,
   15.5505,       985,
   15.5751,       965,
   15.5996,       963,
   15.6241,       930,
   15.6487,       920,
   15.6732,       975,
   15.6977,       967,
   15.7223,       940,
   15.7468,       901,
   15.7714,       895,
   15.7959,       939,
   15.8204,       895,
    15.845,       823,
   15.8695,       926,
    15.894,       892,
   15.9186,       886,
   15.9431,       894,
   15.9676,       842,
   15.9922,       873,
   16.0167,       903,
   16.0413,       847,
   16.0658,       873,
   16.0903,       856,
   16.1149,       856,
   16.1394,       858,
   16.1639,       875,
   16.1885,       872,
    16.213,       842,
   16.2375,       877,
   16.2621,       856,
   16.2866,       813,
   16.3112,       817,
   16.3357,       880,
   16.3602,       901,
   16.3848,       943,
   16.4093,       926,
   16.4338,       914,
   16.4584,       845,
   16.4829,       937,
   16.5074,       802,
    16.532,       838,
   16.5565,       814,
    16.581,       807,
   16.6056,       791,
   16.6301,       863,
   16.6547,       805,
   16.6792,       764,
   16.7037,       811,
   16.7283,       798,
   16.7528,       764,
   16.7773,       740,
   16.8019,       750,
   16.8264,       703,
   16.8509,       792,
   16.8755,       835,
      16.9,       791,
   16.9246,       768,
   16.9491,       763,
   16.9736,       756,
   16.9982,       778,
   17.0227,       757,
   17.0472,       733,
   17.0718,       798,
   17.0963,       710,
   17.1208,       711,
   17.1454,       746,
   17.1699,       793,
   17.1945,       742,
    17.219,       786,
   17.2435,       737,
   17.2681,       789,
   17.2926,       728,
   17.3171,       716,
   17.3417,       770,
   17.3662,       724,
   17.3907,       746,
   17.4153,       784,
   17.4398,       731,
   17.4643,       794,
   17.4889,       720,
   17.5134,       822,
    17.538,       791,
   17.5625,       858,
    17.587,       813,
   17.6116,       776,
   17.6361,       797,
   17.6606,       870,
   17.6852,       830,
   17.7097,       789,
   17.7342,       869,
   17.7588,       813,
   17.7833,       809,
   17.8079,       791,
   17.8324,       813,
   17.8569,       843,
   17.8815,       780,
    17.906,       897,
   17.9305,       952,
   17.9551,       883,
   17.9796,       835,
   18.0041,       827,
   18.0287,       836,
   18.0532,       826,
   18.0778,       773,
   18.1023,       760,
   18.1268,       793,
   18.1514,       755,
   18.1759,       783,
   18.2004,       734,
    18.225,       780,
   18.2495,       718,
    18.274,       744,
   18.2986,       762,
   18.3231,       752,
   18.3476,       815,
   18.3722,       783,
   18.3967,       757,
   18.4213,       723,
   18.4458,       766,
   18.4703,       782,
   18.4949,       770,
   18.5194,       783,
   18.5439,       725,
   18.5685,       748,
    18.593,       727,
   18.6175,       732,
   18.6421,       779,
   18.6666,       732,
   18.6912,       789,
   18.7157,       754,
   18.7402,       732,
   18.7648,       721,
   18.7893,       730,
   18.8138,       743,
   18.8384,       769,
   18.8629,       747,
   18.8874,       713,
    18.912,       756,
   18.9365,       769,
   18.9611,       782,
   18.9856,       773,
   19.0101,       778,
   19.0347,       728,
   19.0592,       771,
   19.0837,       775,
   19.1083,       763,
   19.1328,       755,
   19.1573,       739,
   19.1819,       765,
   19.2064,       779,
    19.231,       749,
   19.2555,       782,
     19.28,       799,
   19.3046,       800,
   19.3291,       862,
   19.3536,       811,
   19.3782,       782,
   19.4027,       831,
   19.4272,       802,
   19.4518,       796,
   19.4763,       842,
   19.5008,       821,
   19.5254,       846,
   19.5499,       872,
   19.5745,       866,
    19.599,       938,
   19.6235,       852,
   19.6481,       866,
   19.6726,       844,
   19.6971,       932,
   19.7217,       903,
   19.7462,       992,
   19.7707,       973,
   19.7953,      1076,
   19.8198,      1098,
   19.8444,      1226,
   19.8689,      1168,
   19.8934,      1085,
    19.918,      1008,
   19.9425,      1015,
    19.967,       973,
   19.9916,       934,
   20.0161,       869,
   20.0406,       810,
   20.0652,       836,
   20.0897,       796,
   20.1143,       760,
   20.1388,       797,
   20.1633,       790,
   20.1879,       762,
   20.2124,       722,
   20.2369,       775,
   20.2615,       718,
    20.286,       735,
   20.3105,       698,
   20.3351,       741,
   20.3596,       777,
   20.3841,       772,
   20.4087,       725,
   20.4332,       781,
   20.4578,       693,
   20.4823,       741,
   20.5068,       678,
   20.5314,       680,
   20.5559,       738,
   20.5804,       708,
    20.605,       694,
   20.6295,       772,
    20.654,       687,
   20.6786,       699,
   20.7031,       721,
   20.7277,       685,
   20.7522,       679,
   20.7767,       716,
   20.8013,       691,
   20.8258,       732,
   20.8503,       741,
   20.8749,       681,
   20.8994,       660,
   20.9239,       713,
   20.9485,       668,
    20.973,       698,
   20.9976,       674,
   21.0221,       731,
   21.0466,       714,
   21.0712,       756,
   21.0957,       719,
   21.1202,       747,
   21.1448,       738,
   21.1693,       730,
   21.1938,       807,
   21.2184,       769,
   21.2429,       826,
   21.2674,       753,
    21.292,       842,
   21.3165,       862,
   21.3411,       812,
   21.3656,       738,
   21.3901,       779,
   21.4147,       827,
   21.4392,       822,
   21.4637,       805,
   21.4883,       827,
   21.5128,       772,
   21.5373,       721,
   21.5619,       740,
   21.5864,       739,
    21.611,       764,
   21.6355,       767,
     21.66,       749,
   21.6846,       772,
   21.7091,       788,
   21.7336,       770,
   21.7582,       780,
   21.7827,       719,
   21.8072,       742,
   21.8318,       797,
   21.8563,       838,
   21.8809,       870,
   21.9054,       840,
   21.9299,       818,
   21.9545,       792,
    21.979,       764,
   22.0035,       855,
   22.0281,       888,
   22.0526,       853,
   22.0771,       833,
   22.1017,       827,
   22.1262,       804,
   22.1507,       840,
   22.1753,       857,
   22.1998,       792,
   22.2244,       827,
   22.2489,       828,
   22.2734,       795,
    22.298,       729,
   22.3225,       806,
    22.347,       810,
   22.3716,       845,
   22.3961,       806,
   22.4206,       908,
   22.4452,       873,
   22.4697,       923,
   22.4943,       995,
   22.5188,      1040,
   22.5433,       977,
   22.5679,      1000,
   22.5924,       976,
   22.6169,       931,
   22.6415,       884,
    22.666,       893,
   22.6905,       835,
   22.7151,       852,
   22.7396,       752,
   22.7642,       750,
   22.7887,       740,
   22.8132,       708,
   22.8378,       752,
   22.8623,       678,
   22.8868,       736,
   22.9114,       681,
   22.9359,       715,
   22.9604,       694,
    22.985,       725,
   23.0095,       718,
    23.034,       725,
   23.0586,       708,
   23.0831,       714,
   23.1077,       654,
   23.1322,       744,
   23.1567,       723,
   23.1813,       678,
   23.2058,       716,
   23.2303,       642,
   23.2549,       690,
   23.2794,       690,
   23.3039,       661,
   23.3285,       671,
    23.353,       623,
   23.3776,       644,
   23.4021,       686,
   23.4266,       682,
   23.4512,       697,
   23.4757,       730,
   23.5002,       668,
   23.5248,       739,
   23.5493,       680,
   23.5738,       673,
   23.5984,       689,
   23.6229,       689,
   23.6475,       728,
    23.672,       715,
   23.6965,       654,
   23.7211,       661,
   23.7456,       690,
   23.7701,       703,
   23.7947,       657,
   23.8192,       731,
   23.8437,       675,
   23.8683,       726,
   23.8928,       728,
   23.9173,       725,
   23.9419,       729,
   23.9664,       671,
    23.991,       698,
   24.0155,       680,
     24.04,       683,
   24.0646,       726,
   24.0891,       655,
   24.1136,       637,
   24.1382,       666,
   24.1627,       697,
   24.1872,       695,
   24.2118,       677,
   24.2363,       747,
   24.2609,       713,
   24.2854,       699,
   24.3099,       687,
   24.3345,       650,
    24.359,       689,
   24.3835,       691,
   24.4081,       697,
   24.4326,       656,
   24.4571,       696,
   24.4817,       666,
   24.5062,       685,
   24.5308,       653,
   24.5553,       702,
   24.5798,       741,
   24.6044,       716,
   24.6289,       696,
   24.6534,       742,
    24.678,       676,
   24.7025,       728,
    24.727,       737,
   24.7516,       799,
   24.7761,       718,
   24.8006,       760,
   24.8252,       779,
   24.8497,       740,
   24.8743,       793,
   24.8988,       849,
   24.9233,       796,
   24.9479,       783,
   24.9724,       823,
   24.9969,       808,
   25.0215,       855,
    25.046,       791,
   25.0705,       844,
   25.0951,       783,
   25.1196,       785,
   25.1442,       695,
   25.1687,       701,
   25.1932,       740,
   25.2178,       750,
   25.2423,       769,
   25.2668,       734,
   25.2914,       728,
   25.3159,       721,
   25.3404,       758,
    25.365,       691,
   25.3895,       768,
   25.4141,       781,
   25.4386,       712,
   25.4631,       789,
   25.4877,       723,
   25.5122,       718,
   25.5367,       760,
   25.5613,       722,
   25.5858,       737,
   25.6103,       711,
   25.6349,       779,
   25.6594,       732,
   25.6839,       720,
   25.7085,       758,
    25.733,       747,
   25.7576,       742,
   25.7821,       735,
   25.8066,       699,
   25.8312,       694,
   25.8557,       677,
   25.8802,       767,
   25.9048,       711,
   25.9293,       706,
   25.9538,       742,
   25.9784,       720,
   26.0029,       717,
   26.0275,       705,
    26.052,       685,
   26.0765,       712,
   26.1011,       718,
   26.1256,       708,
   26.1501,       736,
   26.1747,       722,
   26.1992,       732,
   26.2237,       727,
   26.2483,       694,
   26.2728,       778,
   26.2974,       719,
   26.3219,       714,
   26.3464,       668,
    26.371,       733,
   26.3955,       724,
     26.42,       731,
   26.4446,       741,
   26.4691,       705,
   26.4936,       744,
   26.5182,       738,
   26.5427,       786,
   26.5673,       716,
   26.5918,       694,
   26.6163,       747,
   26.6409,       767,
   26.6654,       760,
   26.6899,       747,
   26.7145,       767,
    26.739,       740,
   26.7635,       781,
   26.7881,       776,
   26.8126,       803,
   26.8371,       745,
   26.8617,       698,
   26.8862,       766,
   26.9108,       760,
   26.9353,       789,
   26.9598,       812,
   26.9844,       821,
   27.0089,       797,
   27.0334,       782,
    27.058,       773,
   27.0825,       763,
    27.107,       764,
   27.1316,       765,
   27.1561,       733,
   27.1807,       752,
   27.2052,       694,
   27.2297,       766,
   27.2543,       713,
   27.2788,       771,
   27.3033,       751,
   27.3279,       669,
   27.3524,       749,
   27.3769,       762,
   27.4015,       745,
    27.426,       735,
   27.4506,       762,
   27.4751,       751,
   27.4996,       699,
   27.5242,       736,
   27.5487,       739,
   27.5732,       759,
   27.5978,       740,
   27.6223,       662,
   27.6468,       736,
   27.6714,       725,
   27.6959,       755,
   27.7204,       752,
    27.745,       692,
   27.7695,       703,
   27.7941,       811,
   27.8186,       761,
   27.8431,       764,
   27.8677,       749,
   27.8922,       764,
   27.9167,       771,
   27.9413,       749,
   27.9658,       741,
   27.9903,       718,
   28.0149,       717,
   28.0394,       723,
    28.064,       723,
   28.0885,       681,
    28.113,       708,
   28.1376,       752,
   28.1621,       746,
   28.1866,       694,
   28.2112,       713,
   28.2357,       706,
   28.2602,       714,
   28.2848,       736,
   28.3093,       740,
   28.3339,       722,
   28.3584,       709,
   28.3829,       757,
   28.4075,       781,
    28.432,       778,
   28.4565,       717,
   28.4811,       713,
   28.5056,       710,
   28.5301,       744,
   28.5547,       734,
   28.5792,       763,
   28.6037,       733,
   28.6283,       752,
   28.6528,       774,
   28.6774,       670,
   28.7019,       739,
   28.7264,       691,
    28.751,       748,
   28.7755,       780,
      28.8,       810,
   28.8246,       763,
   28.8491,       732,
   28.8736,       700,
   28.8982,       723,
   28.9227,       714,
   28.9473,       726,
   28.9718,       765,
   28.9963,       761,
   29.0209,       737,
   29.0454,       713,
   29.0699,       732,
   29.0945,       744,
    29.119,       752,
   29.1435,       744,
   29.1681,       713,
   29.1926,       756,
   29.2172,       738,
   29.2417,       709,
   29.2662,       700,
   29.2908,       724,
   29.3153,       717,
   29.3398,       771,
   29.3644,       757,
   29.3889,       715,
   29.4134,       722,
    29.438,       729,
   29.4625,       712,
    29.487,       686,
   29.5116,       675,
   29.5361,       692,
   29.5607,       695,
   29.5852,       704,
   29.6097,       670,
   29.6343,       666,
   29.6588,       663,
   29.6833,       678,
   29.7079,       725,
   29.7324,       731,
   29.7569,       719,
   29.7815,       692,
    29.806,       680,
   29.8306,       685,
   29.8551,       709,
   29.8796,       701,
   29.9042,       662,
   29.9287,       701,
   29.9532,       660,
   29.9778,       761,
   30.0023,       672,
   30.0268,       726,
   30.0514,       694,
   30.0759,       696,
   30.1005,       747,
    30.125,       689,
   30.1495,       775,
   30.1741,       743,
   30.1986,       747,
   30.2231,       745,
   30.2477,       741,
   30.2722,       728,
   30.2967,       695,
   30.3213,       686,
   30.3458,       676,
   30.3703,       736,
   30.3949,       729,
   30.4194,       691,
    30.444,       669,
   30.4685,       719,
    30.493,       704,
   30.5176,       692,
   30.5421,       691,
   30.5666,       714,
   30.5912,       678,
   30.6157,       675,
   30.6402,       719,
   30.6648,       744,
   30.6893,       763,
   30.7139,       679,
   30.7384,       660,
   30.7629,       734,
   30.7875,       676,
    30.812,       654,
   30.8365,       689,
   30.8611,       714,
   30.8856,       690,
   30.9101,       678,
   30.9347,       726,
   30.9592,       654,
   30.9838,       651,
   31.0083,       667,
   31.0328,       656,
   31.0574,       668,
   31.0819,       627,
   31.1064,       664,
    31.131,       661,
   31.1555,       680,
     31.18,       697,
   31.2046,       607,
   31.2291,       709,
   31.2536,       653,
   31.2782,       607,
   31.3027,       640,
   31.3273,       698,
   31.3518,       656,
   31.3763,       669,
   31.4009,       718,
   31.4254,       692,
   31.4499,       699,
   31.4745,       682,
    31.499,       690,
   31.5235,       707,
   31.5481,       688,
   31.5726,       696,
   31.5972,       669,
   31.6217,       641,
   31.6462,       755,
   31.6708,       647,
   31.6953,       648,
   31.7198,       609,
   31.7444,       667,
   31.7689,       692,
   31.7934,       662,
    31.818,       731,
   31.8425,       679,
   31.8671,       673,
   31.8916,       708,
   31.9161,       734,
   31.9407,       734,
   31.9652,       651,
   31.9897,       650,
   32.0143,       667,
   32.0388,       692,
   32.0633,       671,
   32.0879,       702,
   32.1124,       736,
   32.1369,       701,
   32.1615,       724,
    32.186,       640,
   32.2106,       693,
   32.2351,       636,
   32.2596,       649,
   32.2842,       636,
   32.3087,       635,
   32.3332,       656,
   32.3578,       643,
   32.3823,       649,
   32.4068,       692,
   32.4314,       630,
   32.4559,       674,
   32.4805,       660,
    32.505,       591,
   32.5295,       657,
   32.5541,       641,
   32.5786,       667,
   32.6031,       614,
   32.6277,       645,
   32.6522,       621,
   32.6767,       648,
   32.7013,       629,
   32.7258,       600,
   32.7504,       636,
   32.7749,       641,
   32.7994,       617,
    32.824,       638,
   32.8485,       652,
    32.873,       640,
   32.8976,       651,
   32.9221,       670,
   32.9466,       647,
   32.9712,       655,
   32.9957,       661,
   33.0203,       649,
   33.0448,       615,
   33.0693,       633,
   33.0939,       658,
   33.1184,       682,
   33.1429,       650,
   33.1675,       656,
    33.192,       657,
   33.2165,       642,
   33.2411,       676,
   33.2656,       667,
   33.2901,       671,
   33.3147,       606,
   33.3392,       670,
   33.3638,       620,
   33.3883,       623,
   33.4128,       597,
   33.4374,       621,
   33.4619,       664,
   33.4864,       590,
    33.511,       667,
   33.5355,       612,
     33.56,       588,
   33.5846,       635,
   33.6091,       588,
   33.6337,       623,
   33.6582,       613,
   33.6827,       605,
   33.7073,       603,
   33.7318,       633,
   33.7563,       607,
   33.7809,       652,
   33.8054,       583,
   33.8299,       603,
   33.8545,       606,
    33.879,       594,
   33.9036,       597,
   33.9281,       611,
   33.9526,       601,
   33.9772,       621,
   34.0017,       623,
   34.0262,       604,
   34.0508,       600,
   34.0753,       590,
   34.0998,       608,
   34.1244,       602,
   34.1489,       574,
   34.1734,       589,
    34.198,       583,
   34.2225,       594,
   34.2471,       572,
   34.2716,       610,
   34.2961,       522,
   34.3207,       645,
   34.3452,       595,
   34.3697,       590,
   34.3943,       615,
   34.4188,       588,
   34.4433,       582,
   34.4679,       593,
   34.4924,       573,
    34.517,       567,
   34.5415,       586,
    34.566,       547,
   34.5906,       539,
   34.6151,       558,
   34.6396,       542,
   34.6642,       590,
   34.6887,       579,
   34.7132,       578,
   34.7378,       561,
   34.7623,       606,
   34.7869,       596,
   34.8114,       566,
   34.8359,       593,
   34.8605,       580,
    34.885,       561,
   34.9095,       602,
   34.9341,       594,
   34.9586,       593,
   34.9831,       576,
   35.0077,       550,
   35.0322,       604,
   35.0567,       578,
   35.0813,       611,
   35.1058,       587,
   35.1304,       594,
   35.1549,       579,
   35.1794,       556,
    35.204,       585,
   35.2285,       600,
    35.253,       585,
   35.2776,       591,
   35.3021,       562,
   35.3266,       540,
   35.3512,       532,
   35.3757,       575,
   35.4003,       548,
   35.4248,       573,
   35.4493,       600,
   35.4739,       584,
   35.4984,       562,
   35.5229,       534,
   35.5475,       561,
    35.572,       565,
   35.5965,       522,
   35.6211,       564,
   35.6456,       577,
   35.6702,       568,
   35.6947,       554,
   35.7192,       559,
   35.7438,       573,
   35.7683,       544,
   35.7928,       557,
   35.8174,       534,
   35.8419,       548,
   35.8664,       583,
    35.891,       530,
   35.9155,       539,
     35.94,       568,
   35.9646,       589,
   35.9891,       546,
   36.0137,       526,
   36.0382,       496,
   36.0627,       513,
   36.0873,       542,
   36.1118,       546,
   36.1363,       549,
   36.1609,       530,
   36.1854,       537,
   36.2099,       531,
   36.2345,       514,
    36.259,       522,
   36.2836,       581,
   36.3081,       543,
   36.3326,       522,
   36.3572,       518,
   36.3817,       570,
   36.4062,       492,
   36.4308,       523,
   36.4553,       479,
   36.4798,       501,
   36.5044,       546,
   36.5289,       519,
   36.5535,       527,
    36.578,       537,
   36.6025,       485,
   36.6271,       480,
   36.6516,       548,
   36.6761,       497,
   36.7007,       487,
   36.7252,       481,
   36.7497,       483,
   36.7743,       476,
   36.7988,       513,
   36.8233,       489,
   36.8479,       490,
   36.8724,       473,
    36.897,       440,
   36.9215,       479,
    36.946,       509,
   36.9706,       466,
   36.9951,       513,
   37.0196,       468,
   37.0442,       474,
   37.0687,       481,
   37.0932,       450,
   37.1178,       471,
   37.1423,       462,
   37.1669,       546,
   37.1914,       474,
   37.2159,       513,
   37.2405,       496,
    37.265,       483,
   37.2895,       513,
   37.3141,       480,
   37.3386,       496,
   37.3631,       491,
   37.3877,       503,
   37.4122,       473,
   37.4368,       513,
   37.4613,       480,
   37.4858,       456,
   37.5104,       488,
   37.5349,       484,
   37.5594,       485,
    37.584,       448,
   37.6085,       446,
    37.633,       486,
   37.6576,       462,
   37.6821,       486,
   37.7066,       469,
   37.7312,       487,
   37.7557,       460,
   37.7803,       453,
   37.8048,       485,
   37.8293,       454,
   37.8539,       470,
   37.8784,       480,
   37.9029,       479,
   37.9275,       453,
    37.952,       517,
   37.9765,       484,
   38.0011,       450,
   38.0256,       408,
   38.0502,       454,
   38.0747,       426,
   38.0992,       440,
   38.1238,       433,
   38.1483,       433,
   38.1728,       450,
   38.1974,       423,
   38.2219,       453,
   38.2464,       409,
    38.271,       453,
   38.2955,       477,
   38.3201,       402,
   38.3446,       476,
   38.3691,       436,
   38.3937,       449,
   38.4182,       433,
   38.4427,       461,
   38.4673,       436,
   38.4918,       442,
   38.5163,       457,
   38.5409,       441,
   38.5654,       439,
   38.5899,       443,
   38.6145,       451,
    38.639,       402,
   38.6636,       421,
   38.6881,       422,
   38.7126,       441,
   38.7372,       417,
   38.7617,       479,
   38.7862,       442,
   38.8108,       424,
   38.8353,       476,
   38.8598,       428,
   38.8844,       491,
   38.9089,       448,
   38.9335,       482,
    38.958,       464,
   38.9825,       459,
   39.0071,       462,
   39.0316,       442,
   39.0561,       484,
   39.0807,       440,
   39.1052,       461,
   39.1297,       432,
   39.1543,       467,
   39.1788,       470,
   39.2034,       462,
   39.2279,       446,
   39.2524,       426,
    39.277,       439,
   39.3015,       459,
    39.326,       491,
   39.3506,       476,
   39.3751,       473,
   39.3996,       455,
   39.4242,       453,
   39.4487,       464,
   39.4732,       516,
   39.4978,       513,
   39.5223,       504,
   39.5469,       514,
   39.5714,       492,
   39.5959,       495,
   39.6205,       486,
    39.645,       495,
   39.6695,       499,
   39.6941,       484,
   39.7186,       473,
   39.7431,       481,
   39.7677,       504,
   39.7922,       453,
   39.8168,       516,
   39.8413,       484,
   39.8658,       499,
   39.8904,       501,
   39.9149,       426,
   39.9394,       451,
    39.964,       509,
   39.9885,       476,
