;RAW4.00
[RawHeader]
Date=07/26/2021
EstimatedTotalTime=633.837
FurtherDQLReading=0
HardwareIndicator=65519
MeasuredTotalTime=633.837
MeasurementFlag=1
NumberOfMeasuredRanges=1
NumberOfRanges=1
Time=16:29:00

[VarInfo]
Type=USER
Flags=0
Value=Lab Manager

[VarInfo]
Type=SAMPLEID
Flags=0
Value=

[VarInfo]
Type=COMMENT
Flags=0
Value=

[VarInfo]
Type=UTF
Flags=0
Value=

[VarInfo]
Type=CREATOR
Flags=0
Value=BrmlToV4Converter

[VarInfo]
Type=CREATOR_VERSION
Flags=0
Value=7.3.1.0

[HardwareConfiguration]
AbsorptionFactor=9999
ActivateAbsorber=0
Alpha1=0.7093
Alpha2=0.71359
AlphaAverage=0.71073
AlphaRatio=0.5
Analyzer=0
Anode=Mo
AntiScatteringSlit=18
BeamOpticsFlags=0
Beta=0.63229
BetaRelativeIntensity=0
DeactivateAbsorber=0
DetectorSlit=9999
DivergenceSlit=0.2
GoniometerControl=0
GoniometerDiameter=560
GoniometerModel=512
GoniometerStage=7
Monochromator=0
NearSampleSlit=9999
PrimarySollerSlit=2.5
SampleChanger=0
SecondSollerSlit=9999
SynchronousAxis=0
ThinFilmAttachment=9999
WaveUnit=A

[RangeHeader]
ActuallyUsedLambda=0.71073
AdditionalDetectorMask=257
DataRecordLength=4
DelayTime=0
DisplayPlaneNumber=0
EstimatedScanTime=634
ExtraParametersMask=0
GeneratorCurrent=40
GeneratorVoltage=50
Increment=0.0245361
Increment3=0
NumberOfCompletedData=1427
NumberOfCounts=1
NumberOfDetectors=0
NumberOfDrives=2
NumberOfEncoderDrives=0
NumberOfMeasuredData=1427
NumberOfVaryingParameters=0
RangeStartTime=0
RotationSpeed=60
ScanMode=1
ScanType=Locked Coupled
SimulatedMeasConditions=0
SlitChangerIn=0
SmootingWidth=0
Start=5
Steps=1427
SynchronousRotation=0
Time=76.8

[VarInfo]
Type=PSD_DISCRIM
Flags=0
Value=0.488;0.518

[PSD]
ActualTwoTheta=9999
FirstUsedChannel=0
FixedPSD=0
PSDOpening=2.94433
PSDType=5

[Drive]
DriveFlags=1
DriveName=2Theta
DriveNumber=2
DriveOffset=0
OffsetIndex=0
OscillationAmplitude=0
OscillationSpeed=0
StartPosition=5

[Drive]
DriveFlags=1
DriveName=Theta
DriveNumber=1
DriveOffset=0
OffsetIndex=0
OscillationAmplitude=0
OscillationSpeed=0
StartPosition=2.5

[Data]
     Angle,       PSD,
         5,       138,
   5.02454,       251,
   5.04907,       214,
   5.07361,       217,
   5.09814,       276,
   5.12268,       151,
   5.14722,       294,
   5.17175,       212,
   5.19629,       259,
   5.22083,       307,
   5.24536,       178,
    5.2699,       318,
   5.29443,       208,
   5.31897,       257,
   5.34351,       328,
   5.36804,       169,
   5.39258,       338,
   5.41711,       231,
   5.44165,       279,
   5.46619,       327,
   5.49072,       196,
   5.51526,       331,
   5.53979,       239,
   5.56433,       295,
   5.58887,       329,
    5.6134,       192,
   5.63794,       354,
   5.66248,       286,
   5.68701,       280,
   5.71155,       319,
   5.73608,       189,
   5.76062,       355,
   5.78516,       223,
   5.80969,       262,
   5.83423,       334,
   5.85876,       168,
    5.8833,       332,
   5.90784,       228,
   5.93237,       254,
   5.95691,       305,
   5.98144,       181,
   6.00598,       308,
   6.03052,       207,
   6.05505,       269,
   6.07959,       299,
   6.10413,       165,
   6.12866,       296,
    6.1532,       218,
   6.17773,       216,
   6.20227,       248,
   6.22681,       193,
   6.25134,       267,
   6.27588,       218,
   6.30041,       245,
   6.32495,       265,
   6.34949,       154,
   6.37402,       288,
   6.39856,       190,
    6.4231,       194,
   6.44763,       269,
   6.47217,       156,
    6.4967,       234,
   6.52124,       171,
   6.54578,       194,
   6.57031,       256,
   6.59485,       134,
   6.61938,       246,
   6.64392,       175,
   6.66846,       176,
   6.69299,       257,
   6.71753,       161,
   6.74206,       248,
    6.7666,       206,
   6.79114,       195,
   6.81567,       258,
   6.84021,       153,
   6.86475,       258,
   6.88928,       164,
   6.91382,       198,
   6.93835,       228,
   6.96289,       163,
   6.98743,       251,
   7.01196,       189,
    7.0365,       194,
   7.06103,       245,
   7.08557,       134,
   7.11011,       274,
   7.13464,       197,
   7.15918,       206,
   7.18371,       226,
   7.20825,       135,
   7.23279,       219,
   7.25732,       161,
   7.28186,       196,
    7.3064,       222,
   7.33093,       136,
   7.35547,       247,
      7.38,       191,
   7.40454,       199,
   7.42908,       249,
   7.45361,       162,
   7.47815,       250,
   7.50268,       204,
   7.52722,       188,
   7.55176,       236,
   7.57629,       173,
   7.60083,       245,
   7.62536,       171,
    7.6499,       185,
   7.67444,       267,
   7.69897,       162,
   7.72351,       241,
   7.74805,       182,
   7.77258,       199,
   7.79712,       232,
   7.82165,       135,
   7.84619,       265,
   7.87073,       162,
   7.89526,       187,
    7.9198,       251,
   7.94433,       155,
   7.96887,       279,
   7.99341,       188,
   8.01794,       222,
   8.04248,       223,
   8.06702,       188,
   8.09155,       245,
   8.11609,       186,
   8.14062,       227,
   8.16516,       245,
    8.1897,       184,
   8.21423,       298,
   8.23877,       216,
    8.2633,       212,
   8.28784,       275,
   8.31238,       185,
   8.33691,       258,
   8.36145,       188,
   8.38598,       216,
   8.41052,       266,
   8.43506,       192,
   8.45959,       289,
   8.48413,       214,
   8.50867,       222,
    8.5332,       252,
   8.55774,       195,
   8.58227,       312,
   8.60681,       245,
   8.63135,       271,
   8.65588,       286,
   8.68042,       212,
   8.70495,       309,
   8.72949,       217,
   8.75403,       252,
   8.77856,       276,
    8.8031,       237,
   8.82763,       319,
   8.85217,       256,
   8.87671,       285,
   8.90124,       327,
   8.92578,       236,
   8.95032,       383,
   8.97485,       281,
   8.99939,       325,
   9.02392,       364,
   9.04846,       277,
     9.073,       422,
   9.09753,       317,
   9.12207,       355,
    9.1466,       418,
   9.17114,       328,
   9.19568,       418,
   9.22021,       431,
   9.24475,       402,
   9.26929,       449,
   9.29382,       392,
   9.31836,       473,
   9.34289,       458,
   9.36743,       460,
   9.39197,       539,
    9.4165,       427,
   9.44104,       555,
   9.46557,       492,
   9.49011,       537,
   9.51465,       621,
   9.53918,       530,
   9.56372,       619,
   9.58825,       632,
   9.61279,       656,
   9.63733,       781,
   9.66186,       673,
    9.6864,       826,
   9.71094,       846,
   9.73547,       785,
   9.76001,       792,
   9.78454,       762,
   9.80908,       812,
   9.83362,       698,
   9.85815,       720,
   9.88269,       744,
   9.90722,       740,
   9.93176,       838,
    9.9563,       792,
   9.98083,       818,
   10.0054,       875,
   10.0299,       822,
   10.0544,       918,
    10.079,       858,
   10.1035,       855,
    10.128,       856,
   10.1526,       874,
   10.1771,       908,
   10.2017,       922,
   10.2262,       929,
   10.2507,       927,
   10.2753,       919,
   10.2998,      1005,
   10.3243,       989,
   10.3489,       949,
   10.3734,       965,
   10.3979,      1002,
   10.4225,      1005,
    10.447,      1038,
   10.4716,      1036,
   10.4961,      1024,
   10.5206,      1026,
   10.5452,      1125,
   10.5697,      1076,
   10.5942,      1115,
   10.6188,      1099,
   10.6433,      1117,
   10.6678,      1164,
   10.6924,      1134,
   10.7169,      1174,
   10.7415,      1195,
    10.766,      1189,
   10.7905,      1157,
   10.8151,      1184,
   10.8396,      1158,
   10.8641,      1170,
   10.8887,      1167,
   10.9132,      1228,
   10.9377,      1170,
   10.9623,      1215,
   10.9868,      1202,
   11.0113,      1196,
   11.0359,      1254,
   11.0604,      1247,
    11.085,      1268,
   11.1095,      1267,
    11.134,      1268,
   11.1586,      1268,
   11.1831,      1328,
   11.2076,      1373,
   11.2322,      1321,
   11.2567,      1337,
   11.2812,      1406,
   11.3058,      1393,
   11.3303,      1451,
   11.3549,      1517,
   11.3794,      1684,
   11.4039,      1820,
   11.4285,      1962,
    11.453,      2201,
   11.4775,      2202,
   11.5021,      2278,
   11.5266,      2175,
   11.5511,      1888,
   11.5757,      1782,
   11.6002,      1670,
   11.6248,      1509,
   11.6493,      1470,
   11.6738,      1415,
   11.6984,      1382,
   11.7229,      1345,
   11.7474,      1339,
    11.772,      1390,
   11.7965,      1334,
    11.821,      1408,
   11.8456,      1335,
   11.8701,      1325,
   11.8946,      1333,
   11.9192,      1286,
   11.9437,      1354,
   11.9683,      1297,
   11.9928,      1317,
   12.0173,      1344,
   12.0419,      1364,
   12.0664,      1432,
   12.0909,      1453,
   12.1155,      1344,
     12.14,      1440,
   12.1645,      1404,
   12.1891,      1399,
   12.2136,      1408,
   12.2382,      1394,
   12.2627,      1460,
   12.2872,      1523,
   12.3118,      1603,
   12.3363,      1699,
   12.3608,      1883,
   12.3854,      2140,
   12.4099,      2387,
   12.4344,      2546,
    12.459,      2716,
   12.4835,      2729,
   12.5081,      2646,
   12.5326,      2348,
   12.5571,      2068,
   12.5817,      1917,
   12.6062,      1662,
   12.6307,      1501,
   12.6553,      1400,
   12.6798,      1311,
   12.7043,      1312,
   12.7289,      1306,
   12.7534,      1323,
    12.778,      1273,
   12.8025,      1215,
    12.827,      1245,
   12.8516,      1210,
   12.8761,      1254,
   12.9006,      1224,
   12.9252,      1163,
   12.9497,      1244,
   12.9742,      1219,
   12.9988,      1193,
   13.0233,      1246,
   13.0478,      1155,
   13.0724,      1201,
   13.0969,      1183,
   13.1215,      1198,
    13.146,      1174,
   13.1705,      1169,
   13.1951,      1180,
   13.2196,      1136,
   13.2441,      1198,
   13.2687,      1132,
   13.2932,      1151,
   13.3177,      1221,
   13.3423,      1168,
   13.3668,      1200,
   13.3914,      1213,
   13.4159,      1229,
   13.4404,      1321,
    13.465,      1396,
   13.4895,      1613,
    13.514,      1590,
   13.5386,      1614,
   13.5631,      1755,
   13.5876,      1615,
   13.6122,      1422,
   13.6367,      1345,
   13.6613,      1338,
   13.6858,      1191,
   13.7103,      1185,
   13.7349,      1130,
   13.7594,      1139,
   13.7839,      1048,
   13.8085,      1077,
    13.833,      1052,
   13.8575,      1141,
   13.8821,      1152,
   13.9066,      1045,
   13.9311,      1098,
   13.9557,      1081,
   13.9802,      1052,
   14.0048,      1010,
   14.0293,      1087,
   14.0538,      1046,
   14.0784,      1071,
   14.1029,      1015,
   14.1274,      1079,
    14.152,      1051,
   14.1765,      1106,
    14.201,      1027,
   14.2256,      1044,
   14.2501,       976,
   14.2747,      1025,
   14.2992,      1034,
   14.3237,       987,
   14.3483,       997,
   14.3728,      1058,
   14.3973,       987,
   14.4219,      1060,
   14.4464,      1041,
   14.4709,      1021,
   14.4955,      1012,
     14.52,      1073,
   14.5446,      1039,
   14.5691,      1044,
   14.5936,      1003,
   14.6182,      1023,
   14.6427,      1022,
   14.6672,      1019,
   14.6918,      1053,
   14.7163,      1020,
   14.7408,      1019,
   14.7654,      1074,
   14.7899,      1101,
   14.8144,      1117,
    14.839,      1145,
   14.8635,      1201,
   14.8881,      1297,
   14.9126,      1459,
   14.9371,      1636,
   14.9617,      1848,
   14.9862,      1935,
   15.0107,      2059,
   15.0353,      2080,
   15.0598,      2016,
   15.0843,      1949,
   15.1089,      1770,
   15.1334,      1638,
    15.158,      1530,
   15.1825,      1412,
    15.207,      1298,
   15.2316,      1205,
   15.2561,      1084,
   15.2806,      1049,
   15.3052,       961,
   15.3297,      1002,
   15.3542,       949,
   15.3788,       966,
   15.4033,       937,
   15.4279,       922,
   15.4524,       931,
   15.4769,       927,
   15.5015,       875,
    15.526,       902,
   15.5505,       882,
   15.5751,       897,
   15.5996,       902,
   15.6241,       851,
   15.6487,       858,
   15.6732,       901,
   15.6977,       837,
   15.7223,       868,
   15.7468,       851,
   15.7714,       852,
   15.7959,       850,
   15.8204,       840,
    15.845,       792,
   15.8695,       813,
    15.894,       837,
   15.9186,       803,
   15.9431,       819,
   15.9676,       799,
   15.9922,       773,
   16.0167,       787,
   16.0413,       781,
   16.0658,       778,
   16.0903,       822,
   16.1149,       747,
   16.1394,       796,
   16.1639,       777,
   16.1885,       754,
    16.213,       739,
   16.2375,       771,
   16.2621,       746,
   16.2866,       777,
   16.3112,       788,
   16.3357,       820,
   16.3602,       789,
   16.3848,       791,
   16.4093,       751,
   16.4338,       782,
   16.4584,       847,
   16.4829,       853,
   16.5074,       822,
    16.532,       868,
   16.5565,       793,
    16.581,       771,
   16.6056,       829,
   16.6301,       737,
   16.6547,       730,
   16.6792,       719,
   16.7037,       758,
   16.7283,       728,
   16.7528,       740,
   16.7773,       676,
   16.8019,       741,
   16.8264,       729,
   16.8509,       741,
   16.8755,       708,
      16.9,       736,
   16.9246,       714,
   16.9491,       736,
   16.9736,       713,
   16.9982,       767,
   17.0227,       697,
   17.0472,       754,
   17.0718,       732,
   17.0963,       699,
   17.1208,       674,
   17.1454,       687,
   17.1699,       694,
   17.1945,       711,
    17.219,       723,
   17.2435,       754,
   17.2681,       768,
   17.2926,       722,
   17.3171,       730,
   17.3417,       778,
   17.3662,       720,
   17.3907,       761,
   17.4153,       696,
   17.4398,       726,
   17.4643,       736,
   17.4889,       687,
   17.5134,       781,
    17.538,       726,
   17.5625,       686,
    17.587,       753,
   17.6116,       791,
   17.6361,       780,
   17.6606,       816,
   17.6852,       776,
   17.7097,       792,
   17.7342,       769,
   17.7588,       811,
   17.7833,       838,
   17.8079,       777,
   17.8324,       754,
   17.8569,       714,
   17.8815,       791,
    17.906,       765,
   17.9305,       830,
   17.9551,       837,
   17.9796,       853,
   18.0041,       794,
   18.0287,       796,
   18.0532,       800,
   18.0778,       767,
   18.1023,       784,
   18.1268,       745,
   18.1514,       734,
   18.1759,       674,
   18.2004,       705,
    18.225,       662,
   18.2495,       701,
    18.274,       725,
   18.2986,       704,
   18.3231,       716,
   18.3476,       700,
   18.3722,       663,
   18.3967,       746,
   18.4213,       705,
   18.4458,       716,
   18.4703,       758,
   18.4949,       651,
   18.5194,       677,
   18.5439,       713,
   18.5685,       688,
    18.593,       734,
   18.6175,       736,
   18.6421,       647,
   18.6666,       740,
   18.6912,       750,
   18.7157,       719,
   18.7402,       726,
   18.7648,       753,
   18.7893,       743,
   18.8138,       699,
   18.8384,       712,
   18.8629,       760,
   18.8874,       704,
    18.912,       716,
   18.9365,       677,
   18.9611,       702,
   18.9856,       697,
   19.0101,       688,
   19.0347,       755,
   19.0592,       755,
   19.0837,       755,
   19.1083,       740,
   19.1328,       726,
   19.1573,       680,
   19.1819,       757,
   19.2064,       707,
    19.231,       699,
   19.2555,       657,
     19.28,       762,
   19.3046,       778,
   19.3291,       769,
   19.3536,       797,
   19.3782,       756,
   19.4027,       834,
   19.4272,       749,
   19.4518,       844,
   19.4763,       824,
   19.5008,       792,
   19.5254,       767,
   19.5499,       760,
   19.5745,       874,
    19.599,       816,
   19.6235,       825,
   19.6481,       839,
   19.6726,       875,
   19.6971,       847,
   19.7217,       876,
   19.7462,       918,
   19.7707,       978,
   19.7953,      1062,
   19.8198,      1177,
   19.8444,      1225,
   19.8689,      1266,
   19.8934,      1337,
    19.918,      1263,
   19.9425,      1269,
    19.967,      1145,
   19.9916,      1088,
   20.0161,      1081,
   20.0406,      1029,
   20.0652,       920,
   20.0897,       856,
   20.1143,       802,
   20.1388,       785,
   20.1633,       690,
   20.1879,       720,
   20.2124,       676,
   20.2369,       684,
   20.2615,       688,
    20.286,       726,
   20.3105,       679,
   20.3351,       709,
   20.3596,       678,
   20.3841,       688,
   20.4087,       660,
   20.4332,       694,
   20.4578,       688,
   20.4823,       645,
   20.5068,       711,
   20.5314,       683,
   20.5559,       670,
   20.5804,       636,
    20.605,       664,
   20.6295,       682,
    20.654,       680,
   20.6786,       710,
   20.7031,       709,
   20.7277,       740,
   20.7522,       747,
   20.7767,       697,
   20.8013,       652,
   20.8258,       730,
   20.8503,       650,
   20.8749,       659,
   20.8994,       689,
   20.9239,       638,
   20.9485,       689,
    20.973,       647,
   20.9976,       636,
   21.0221,       649,
   21.0466,       676,
   21.0712,       626,
   21.0957,       738,
   21.1202,       678,
   21.1448,       668,
   21.1693,       714,
   21.1938,       665,
   21.2184,       679,
   21.2429,       717,
   21.2674,       668,
    21.292,       702,
   21.3165,       749,
   21.3411,       745,
   21.3656,       759,
   21.3901,       698,
   21.4147,       740,
   21.4392,       741,
   21.4637,       731,
   21.4883,       749,
   21.5128,       720,
   21.5373,       736,
   21.5619,       755,
   21.5864,       757,
    21.611,       727,
   21.6355,       696,
     21.66,       719,
   21.6846,       717,
   21.7091,       735,
   21.7336,       748,
   21.7582,       770,
   21.7827,       774,
   21.8072,       721,
   21.8318,       740,
   21.8563,       741,
   21.8809,       785,
   21.9054,       744,
   21.9299,       765,
   21.9545,       784,
    21.979,       752,
   22.0035,       840,
   22.0281,       801,
   22.0526,       796,
   22.0771,       869,
   22.1017,       845,
   22.1262,       850,
   22.1507,       875,
   22.1753,       865,
   22.1998,       886,
   22.2244,       890,
   22.2489,       847,
   22.2734,       828,
    22.298,       809,
   22.3225,       809,
    22.347,       805,
   22.3716,       837,
   22.3961,       845,
   22.4206,       827,
   22.4452,       904,
   22.4697,       886,
   22.4943,      1006,
   22.5188,      1067,
   22.5433,      1100,
   22.5679,      1110,
   22.5924,      1147,
   22.6169,      1070,
   22.6415,      1028,
    22.666,      1049,
   22.6905,      1020,
   22.7151,       927,
   22.7396,       886,
   22.7642,       848,
   22.7887,       770,
   22.8132,       719,
   22.8378,       699,
   22.8623,       682,
   22.8868,       682,
   22.9114,       682,
   22.9359,       676,
   22.9604,       729,
    22.985,       679,
   23.0095,       688,
    23.034,       668,
   23.0586,       740,
   23.0831,       617,
   23.1077,       608,
   23.1322,       668,
   23.1567,       670,
   23.1813,       645,
   23.2058,       650,
   23.2303,       624,
   23.2549,       669,
   23.2794,       616,
   23.3039,       636,
   23.3285,       637,
    23.353,       632,
   23.3776,       584,
   23.4021,       702,
   23.4266,       635,
   23.4512,       643,
   23.4757,       648,
   23.5002,       694,
   23.5248,       652,
   23.5493,       695,
   23.5738,       650,
   23.5984,       645,
   23.6229,       620,
   23.6475,       675,
    23.672,       574,
   23.6965,       655,
   23.7211,       657,
   23.7456,       669,
   23.7701,       614,
   23.7947,       653,
   23.8192,       657,
   23.8437,       622,
   23.8683,       689,
   23.8928,       664,
   23.9173,       620,
   23.9419,       622,
   23.9664,       634,
    23.991,       613,
   24.0155,       579,
     24.04,       613,
   24.0646,       619,
   24.0891,       615,
   24.1136,       645,
   24.1382,       590,
   24.1627,       650,
   24.1872,       619,
   24.2118,       625,
   24.2363,       611,
   24.2609,       637,
   24.2854,       652,
   24.3099,       664,
   24.3345,       695,
    24.359,       643,
   24.3835,       672,
   24.4081,       629,
   24.4326,       683,
   24.4571,       643,
   24.4817,       648,
   24.5062,       645,
   24.5308,       691,
   24.5553,       611,
   24.5798,       622,
   24.6044,       674,
   24.6289,       688,
   24.6534,       659,
    24.678,       685,
   24.7025,       648,
    24.727,       658,
   24.7516,       721,
   24.7761,       708,
   24.8006,       712,
   24.8252,       735,
   24.8497,       715,
   24.8743,       733,
   24.8988,       772,
   24.9233,       777,
   24.9479,       772,
   24.9724,       831,
   24.9969,       782,
   25.0215,       780,
    25.046,       818,
   25.0705,       782,
   25.0951,       760,
   25.1196,       745,
   25.1442,       772,
   25.1687,       750,
   25.1932,       686,
   25.2178,       718,
   25.2423,       705,
   25.2668,       716,
   25.2914,       679,
   25.3159,       683,
   25.3404,       726,
    25.365,       657,
   25.3895,       679,
   25.4141,       660,
   25.4386,       668,
   25.4631,       659,
   25.4877,       685,
   25.5122,       705,
   25.5367,       732,
   25.5613,       680,
   25.5858,       671,
   25.6103,       699,
   25.6349,       678,
   25.6594,       699,
   25.6839,       693,
   25.7085,       711,
    25.733,       747,
   25.7576,       683,
   25.7821,       684,
   25.8066,       665,
   25.8312,       640,
   25.8557,       635,
   25.8802,       647,
   25.9048,       693,
   25.9293,       673,
   25.9538,       660,
   25.9784,       627,
   26.0029,       612,
   26.0275,       645,
    26.052,       639,
   26.0765,       664,
   26.1011,       631,
   26.1256,       636,
   26.1501,       710,
   26.1747,       644,
   26.1992,       673,
   26.2237,       647,
   26.2483,       675,
   26.2728,       702,
   26.2974,       643,
   26.3219,       674,
   26.3464,       631,
    26.371,       635,
   26.3955,       619,
     26.42,       663,
   26.4446,       674,
   26.4691,       676,
   26.4936,       662,
   26.5182,       633,
   26.5427,       677,
   26.5673,       667,
   26.5918,       736,
   26.6163,       638,
   26.6409,       654,
   26.6654,       676,
   26.6899,       729,
   26.7145,       730,
    26.739,       713,
   26.7635,       699,
   26.7881,       735,
   26.8126,       670,
   26.8371,       667,
   26.8617,       754,
   26.8862,       704,
   26.9108,       746,
   26.9353,       660,
   26.9598,       715,
   26.9844,       751,
   27.0089,       740,
   27.0334,       660,
    27.058,       690,
   27.0825,       689,
    27.107,       743,
   27.1316,       701,
   27.1561,       757,
   27.1807,       687,
   27.2052,       696,
   27.2297,       709,
   27.2543,       677,
   27.2788,       699,
   27.3033,       689,
   27.3279,       700,
   27.3524,       681,
   27.3769,       667,
   27.4015,       682,
    27.426,       663,
   27.4506,       646,
   27.4751,       670,
   27.4996,       645,
   27.5242,       627,
   27.5487,       704,
   27.5732,       648,
   27.5978,       734,
   27.6223,       613,
   27.6468,       690,
   27.6714,       677,
   27.6959,       661,
   27.7204,       679,
    27.745,       666,
   27.7695,       673,
   27.7941,       673,
   27.8186,       715,
   27.8431,       717,
   27.8677,       694,
   27.8922,       701,
   27.9167,       716,
   27.9413,       715,
   27.9658,       711,
   27.9903,       661,
   28.0149,       708,
   28.0394,       675,
    28.064,       616,
   28.0885,       683,
    28.113,       717,
   28.1376,       710,
   28.1621,       692,
   28.1866,       674,
   28.2112,       665,
   28.2357,       709,
   28.2602,       641,
   28.2848,       693,
   28.3093,       698,
   28.3339,       669,
   28.3584,       686,
   28.3829,       680,
   28.4075,       641,
    28.432,       730,
   28.4565,       685,
   28.4811,       692,
   28.5056,       686,
   28.5301,       666,
   28.5547,       660,
   28.5792,       700,
   28.6037,       686,
   28.6283,       680,
   28.6528,       696,
   28.6774,       689,
   28.7019,       701,
   28.7264,       629,
    28.751,       696,
   28.7755,       717,
      28.8,       684,
   28.8246,       752,
   28.8491,       703,
   28.8736,       773,
   28.8982,       693,
   28.9227,       680,
   28.9473,       652,
   28.9718,       660,
   28.9963,       714,
   29.0209,       698,
   29.0454,       674,
   29.0699,       669,
   29.0945,       671,
    29.119,       650,
   29.1435,       603,
   29.1681,       705,
   29.1926,       665,
   29.2172,       641,
   29.2417,       627,
   29.2662,       693,
   29.2908,       664,
   29.3153,       677,
   29.3398,       597,
   29.3644,       675,
   29.3889,       637,
   29.4134,       609,
    29.438,       645,
   29.4625,       630,
    29.487,       648,
   29.5116,       666,
   29.5361,       620,
   29.5607,       658,
   29.5852,       562,
   29.6097,       625,
   29.6343,       580,
   29.6588,       653,
   29.6833,       617,
   29.7079,       588,
   29.7324,       651,
   29.7569,       666,
   29.7815,       646,
    29.806,       674,
   29.8306,       617,
   29.8551,       649,
   29.8796,       636,
   29.9042,       700,
   29.9287,       656,
   29.9532,       638,
   29.9778,       652,
   30.0023,       661,
   30.0268,       652,
   30.0514,       663,
   30.0759,       678,
   30.1005,       668,
    30.125,       705,
   30.1495,       654,
   30.1741,       645,
   30.1986,       699,
   30.2231,       644,
   30.2477,       680,
   30.2722,       661,
   30.2967,       698,
   30.3213,       694,
   30.3458,       647,
   30.3703,       687,
   30.3949,       613,
   30.4194,       650,
    30.444,       656,
   30.4685,       686,
    30.493,       652,
   30.5176,       621,
   30.5421,       623,
   30.5666,       621,
   30.5912,       657,
   30.6157,       615,
   30.6402,       630,
   30.6648,       632,
   30.6893,       626,
   30.7139,       635,
   30.7384,       624,
   30.7629,       650,
   30.7875,       650,
    30.812,       608,
   30.8365,       649,
   30.8611,       610,
   30.8856,       610,
   30.9101,       599,
   30.9347,       627,
   30.9592,       621,
   30.9838,       619,
   31.0083,       600,
   31.0328,       618,
   31.0574,       567,
   31.0819,       613,
   31.1064,       641,
    31.131,       586,
   31.1555,       590,
     31.18,       622,
   31.2046,       600,
   31.2291,       619,
   31.2536,       612,
   31.2782,       590,
   31.3027,       599,
   31.3273,       613,
   31.3518,       621,
   31.3763,       642,
   31.4009,       674,
   31.4254,       644,
   31.4499,       676,
   31.4745,       616,
    31.499,       632,
   31.5235,       687,
   31.5481,       622,
   31.5726,       666,
   31.5972,       649,
   31.6217,       705,
   31.6462,       628,
   31.6708,       659,
   31.6953,       641,
   31.7198,       628,
   31.7444,       620,
   31.7689,       625,
   31.7934,       640,
    31.818,       634,
   31.8425,       644,
   31.8671,       682,
   31.8916,       652,
   31.9161,       649,
   31.9407,       630,
   31.9652,       659,
   31.9897,       634,
   32.0143,       664,
   32.0388,       682,
   32.0633,       666,
   32.0879,       635,
   32.1124,       659,
   32.1369,       624,
   32.1615,       631,
    32.186,       630,
   32.2106,       696,
   32.2351,       626,
   32.2596,       615,
   32.2842,       645,
   32.3087,       637,
   32.3332,       628,
   32.3578,       596,
   32.3823,       619,
   32.4068,       583,
   32.4314,       616,
   32.4559,       601,
   32.4805,       590,
    32.505,       574,
   32.5295,       587,
   32.5541,       588,
   32.5786,       587,
   32.6031,       537,
   32.6277,       556,
   32.6522,       561,
   32.6767,       559,
   32.7013,       555,
   32.7258,       575,
   32.7504,       539,
   32.7749,       566,
   32.7994,       590,
    32.824,       531,
   32.8485,       563,
    32.873,       589,
   32.8976,       614,
   32.9221,       544,
   32.9466,       552,
   32.9712,       545,
   32.9957,       604,
   33.0203,       579,
   33.0448,       590,
   33.0693,       576,
   33.0939,       575,
   33.1184,       551,
   33.1429,       577,
   33.1675,       588,
    33.192,       599,
   33.2165,       591,
   33.2411,       558,
   33.2656,       613,
   33.2901,       635,
   33.3147,       607,
   33.3392,       574,
   33.3638,       579,
   33.3883,       596,
   33.4128,       598,
   33.4374,       561,
   33.4619,       612,
   33.4864,       543,
    33.511,       574,
   33.5355,       540,
     33.56,       577,
   33.5846,       585,
   33.6091,       557,
   33.6337,       551,
   33.6582,       570,
   33.6827,       530,
   33.7073,       548,
   33.7318,       544,
   33.7563,       512,
   33.7809,       540,
   33.8054,       548,
   33.8299,       554,
   33.8545,       553,
    33.879,       487,
   33.9036,       545,
   33.9281,       550,
   33.9526,       550,
   33.9772,       561,
   34.0017,       561,
   34.0262,       521,
   34.0508,       551,
   34.0753,       516,
   34.0998,       557,
   34.1244,       548,
   34.1489,       543,
   34.1734,       511,
    34.198,       497,
   34.2225,       531,
   34.2471,       525,
   34.2716,       571,
   34.2961,       544,
   34.3207,       582,
   34.3452,       474,
   34.3697,       519,
   34.3943,       548,
   34.4188,       488,
   34.4433,       524,
   34.4679,       534,
   34.4924,       521,
    34.517,       580,
   34.5415,       513,
    34.566,       561,
   34.5906,       507,
   34.6151,       494,
   34.6396,       510,
   34.6642,       498,
   34.6887,       547,
   34.7132,       562,
   34.7378,       573,
   34.7623,       552,
   34.7869,       565,
   34.8114,       518,
   34.8359,       536,
   34.8605,       504,
    34.885,       526,
   34.9095,       521,
   34.9341,       541,
   34.9586,       565,
   34.9831,       526,
   35.0077,       526,
   35.0322,       507,
   35.0567,       496,
   35.0813,       553,
   35.1058,       503,
   35.1304,       523,
   35.1549,       596,
   35.1794,       492,
    35.204,       563,
   35.2285,       521,
    35.253,       542,
   35.2776,       508,
   35.3021,       525,
   35.3266,       523,
   35.3512,       490,
   35.3757,       509,
   35.4003,       517,
   35.4248,       452,
   35.4493,       530,
   35.4739,       480,
   35.4984,       520,
   35.5229,       514,
   35.5475,       521,
    35.572,       491,
   35.5965,       501,
   35.6211,       496,
   35.6456,       540,
   35.6702,       494,
   35.6947,       498,
   35.7192,       540,
   35.7438,       528,
   35.7683,       555,
   35.7928,       528,
   35.8174,       521,
   35.8419,       533,
   35.8664,       466,
    35.891,       507,
   35.9155,       489,
     35.94,       487,
   35.9646,       550,
   35.9891,       550,
   36.0137,       517,
   36.0382,       508,
   36.0627,       534,
   36.0873,       490,
   36.1118,       496,
   36.1363,       503,
   36.1609,       495,
   36.1854,       499,
   36.2099,       523,
   36.2345,       500,
    36.259,       500,
   36.2836,       508,
   36.3081,       486,
   36.3326,       479,
   36.3572,       504,
   36.3817,       502,
   36.4062,       502,
   36.4308,       466,
   36.4553,       497,
   36.4798,       485,
   36.5044,       501,
   36.5289,       480,
   36.5535,       454,
    36.578,       453,
   36.6025,       444,
   36.6271,       503,
   36.6516,       469,
   36.6761,       483,
   36.7007,       493,
   36.7252,       457,
   36.7497,       439,
   36.7743,       497,
   36.7988,       448,
   36.8233,       440,
   36.8479,       416,
   36.8724,       499,
    36.897,       463,
   36.9215,       427,
    36.946,       439,
   36.9706,       417,
   36.9951,       476,
   37.0196,       420,
   37.0442,       461,
   37.0687,       469,
   37.0932,       443,
   37.1178,       390,
   37.1423,       398,
   37.1669,       458,
   37.1914,       434,
   37.2159,       411,
   37.2405,       431,
    37.265,       432,
   37.2895,       439,
   37.3141,       425,
   37.3386,       472,
   37.3631,       430,
   37.3877,       476,
   37.4122,       416,
   37.4368,       420,
   37.4613,       388,
   37.4858,       451,
   37.5104,       475,
   37.5349,       415,
   37.5594,       445,
    37.584,       448,
   37.6085,       437,
    37.633,       418,
   37.6576,       461,
   37.6821,       386,
   37.7066,       415,
   37.7312,       438,
   37.7557,       408,
   37.7803,       403,
   37.8048,       407,
   37.8293,       419,
   37.8539,       416,
   37.8784,       428,
   37.9029,       411,
   37.9275,       384,
    37.952,       402,
   37.9765,       392,
   38.0011,       369,
   38.0256,       421,
   38.0502,       375,
   38.0747,       413,
   38.0992,       393,
   38.1238,       401,
   38.1483,       400,
   38.1728,       439,
   38.1974,       390,
   38.2219,       402,
   38.2464,       387,
    38.271,       408,
   38.2955,       403,
   38.3201,       436,
   38.3446,       414,
   38.3691,       413,
   38.3937,       398,
   38.4182,       395,
   38.4427,       417,
   38.4673,       382,
   38.4918,       393,
   38.5163,       388,
   38.5409,       406,
   38.5654,       442,
   38.5899,       394,
   38.6145,       380,
    38.639,       362,
   38.6636,       390,
   38.6881,       402,
   38.7126,       397,
   38.7372,       395,
   38.7617,       369,
   38.7862,       380,
   38.8108,       396,
   38.8353,       403,
   38.8598,       372,
   38.8844,       403,
   38.9089,       384,
   38.9335,       405,
    38.958,       427,
   38.9825,       467,
   39.0071,       389,
   39.0316,       410,
   39.0561,       414,
   39.0807,       390,
   39.1052,       369,
   39.1297,       373,
   39.1543,       364,
   39.1788,       401,
   39.2034,       408,
   39.2279,       380,
   39.2524,       411,
    39.277,       442,
   39.3015,       395,
    39.326,       396,
   39.3506,       395,
   39.3751,       395,
   39.3996,       423,
   39.4242,       463,
   39.4487,       416,
   39.4732,       427,
   39.4978,       460,
   39.5223,       468,
   39.5469,       439,
   39.5714,       428,
   39.5959,       444,
   39.6205,       463,
    39.645,       436,
   39.6695,       430,
   39.6941,       443,
   39.7186,       437,
   39.7431,       412,
   39.7677,       415,
   39.7922,       412,
   39.8168,       405,
   39.8413,       453,
   39.8658,       406,
   39.8904,       427,
   39.9149,       405,
   39.9394,       432,
    39.964,       403,
   39.9885,       417,
