;RAW4.00
[RawHeader]
Date=07/26/2021
EstimatedTotalTime=634.165
FurtherDQLReading=0
HardwareIndicator=65519
MeasuredTotalTime=634.165
MeasurementFlag=1
NumberOfMeasuredRanges=1
NumberOfRanges=1
Time=16:43:45

[VarInfo]
Type=USER
Flags=0
Value=Lab Manager

[VarInfo]
Type=SAMPLEID
Flags=0
Value=

[VarInfo]
Type=COMMENT
Flags=0
Value=

[VarInfo]
Type=UTF
Flags=0
Value=

[VarInfo]
Type=CREATOR
Flags=0
Value=BrmlToV4Converter

[VarInfo]
Type=CREATOR_VERSION
Flags=0
Value=7.3.1.0

[HardwareConfiguration]
AbsorptionFactor=9999
ActivateAbsorber=0
Alpha1=0.7093
Alpha2=0.71359
AlphaAverage=0.71073
AlphaRatio=0.5
Analyzer=0
Anode=Mo
AntiScatteringSlit=18
BeamOpticsFlags=0
Beta=0.63229
BetaRelativeIntensity=0
DeactivateAbsorber=0
DetectorSlit=9999
DivergenceSlit=0.2
GoniometerControl=0
GoniometerDiameter=560
GoniometerModel=512
GoniometerStage=7
Monochromator=0
NearSampleSlit=9999
PrimarySollerSlit=2.5
SampleChanger=0
SecondSollerSlit=9999
SynchronousAxis=0
ThinFilmAttachment=9999
WaveUnit=A

[RangeHeader]
ActuallyUsedLambda=0.71073
AdditionalDetectorMask=257
DataRecordLength=4
DelayTime=0
DisplayPlaneNumber=0
EstimatedScanTime=634
ExtraParametersMask=0
GeneratorCurrent=40
GeneratorVoltage=50
Increment=0.0245361
Increment3=0
NumberOfCompletedData=1427
NumberOfCounts=1
NumberOfDetectors=0
NumberOfDrives=2
NumberOfEncoderDrives=0
NumberOfMeasuredData=1427
NumberOfVaryingParameters=0
RangeStartTime=0
RotationSpeed=60
ScanMode=1
ScanType=Locked Coupled
SimulatedMeasConditions=0
SlitChangerIn=0
SmootingWidth=0
Start=5
Steps=1427
SynchronousRotation=0
Time=76.8

[VarInfo]
Type=PSD_DISCRIM
Flags=0
Value=0.488;0.518

[PSD]
ActualTwoTheta=9999
FirstUsedChannel=0
FixedPSD=0
PSDOpening=2.94433
PSDType=5

[Drive]
DriveFlags=1
DriveName=2Theta
DriveNumber=2
DriveOffset=0
OffsetIndex=0
OscillationAmplitude=0
OscillationSpeed=0
StartPosition=5

[Drive]
DriveFlags=1
DriveName=Theta
DriveNumber=1
DriveOffset=0
OffsetIndex=0
OscillationAmplitude=0
OscillationSpeed=0
StartPosition=2.5

[Data]
     Angle,       PSD,
         5,       231,
   5.02454,       167,
   5.04907,       272,
   5.07361,       163,
   5.09814,       255,
   5.12268,       259,
   5.14722,       180,
   5.17175,       300,
   5.19629,       181,
   5.22083,       294,
   5.24536,       302,
    5.2699,       210,
   5.29443,       304,
   5.31897,       179,
   5.34351,       280,
   5.36804,       330,
   5.39258,       195,
   5.41711,       352,
   5.44165,       198,
   5.46619,       264,
   5.49072,       332,
   5.51526,       210,
   5.53979,       330,
   5.56433,       199,
   5.58887,       312,
    5.6134,       305,
   5.63794,       208,
   5.66248,       323,
   5.68701,       179,
   5.71155,       258,
   5.73608,       277,
   5.76062,       203,
   5.78516,       287,
   5.80969,       200,
   5.83423,       272,
   5.85876,       264,
    5.8833,       196,
   5.90784,       279,
   5.93237,       169,
   5.95691,       243,
   5.98144,       243,
   6.00598,       177,
   6.03052,       311,
   6.05505,       183,
   6.07959,       253,
   6.10413,       265,
   6.12866,       179,
    6.1532,       252,
   6.17773,       162,
   6.20227,       243,
   6.22681,       233,
   6.25134,       182,
   6.27588,       261,
   6.30041,       148,
   6.32495,       235,
   6.34949,       224,
   6.37402,       168,
   6.39856,       253,
    6.4231,       155,
   6.44763,       238,
   6.47217,       232,
    6.4967,       164,
   6.52124,       238,
   6.54578,       155,
   6.57031,       228,
   6.59485,       212,
   6.61938,       158,
   6.64392,       254,
   6.66846,       155,
   6.69299,       207,
   6.71753,       191,
   6.74206,       149,
    6.7666,       272,
   6.79114,       140,
   6.81567,       229,
   6.84021,       196,
   6.86475,       165,
   6.88928,       247,
   6.91382,       150,
   6.93835,       224,
   6.96289,       208,
   6.98743,       167,
   7.01196,       229,
    7.0365,       155,
   7.06103,       189,
   7.08557,       229,
   7.11011,       148,
   7.13464,       261,
   7.15918,       149,
   7.18371,       213,
   7.20825,       202,
   7.23279,       130,
   7.25732,       231,
   7.28186,       142,
    7.3064,       225,
   7.33093,       229,
   7.35547,       180,
      7.38,       224,
   7.40454,       127,
   7.42908,       212,
   7.45361,       211,
   7.47815,       162,
   7.50268,       223,
   7.52722,       141,
   7.55176,       208,
   7.57629,       242,
   7.60083,       146,
   7.62536,       274,
    7.6499,       153,
   7.67444,       222,
   7.69897,       204,
   7.72351,       174,
   7.74805,       222,
   7.77258,       169,
   7.79712,       213,
   7.82165,       221,
   7.84619,       147,
   7.87073,       244,
   7.89526,       147,
    7.9198,       231,
   7.94433,       209,
   7.96887,       152,
   7.99341,       251,
   8.01794,       160,
   8.04248,       210,
   8.06702,       251,
   8.09155,       161,
   8.11609,       235,
   8.14062,       157,
   8.16516,       241,
    8.1897,       224,
   8.21423,       169,
   8.23877,       251,
    8.2633,       161,
   8.28784,       232,
   8.31238,       275,
   8.33691,       164,
   8.36145,       274,
   8.38598,       186,
   8.41052,       233,
   8.43506,       251,
   8.45959,       170,
   8.48413,       293,
   8.50867,       176,
    8.5332,       251,
   8.55774,       248,
   8.58227,       185,
   8.60681,       309,
   8.63135,       207,
   8.65588,       253,
   8.68042,       288,
   8.70495,       183,
   8.72949,       331,
   8.75403,       193,
   8.77856,       275,
    8.8031,       269,
   8.82763,       192,
   8.85217,       297,
   8.87671,       213,
   8.90124,       271,
   8.92578,       309,
   8.95032,       241,
   8.97485,       325,
   8.99939,       226,
   9.02392,       321,
   9.04846,       300,
     9.073,       233,
   9.09753,       331,
   9.12207,       240,
    9.1466,       294,
   9.17114,       310,
   9.19568,       245,
   9.22021,       361,
   9.24475,       283,
   9.26929,       280,
   9.29382,       322,
   9.31836,       263,
   9.34289,       386,
   9.36743,       267,
   9.39197,       350,
    9.4165,       368,
   9.44104,       342,
   9.46557,       427,
   9.49011,       333,
   9.51465,       402,
   9.53918,       424,
   9.56372,       381,
   9.58825,       515,
   9.61279,       438,
   9.63733,       529,
   9.66186,       649,
    9.6864,       563,
   9.71094,       685,
   9.73547,       533,
   9.76001,       571,
   9.78454,       548,
   9.80908,       517,
   9.83362,       621,
   9.85815,       557,
   9.88269,       590,
   9.90722,       653,
   9.93176,       590,
    9.9563,       672,
   9.98083,       642,
   10.0054,       703,
   10.0299,       695,
   10.0544,       721,
    10.079,       798,
   10.1035,       692,
    10.128,       714,
   10.1526,       761,
   10.1771,       779,
   10.2017,       843,
   10.2262,       787,
   10.2507,       808,
   10.2753,       865,
   10.2998,       824,
   10.3243,       873,
   10.3489,       846,
   10.3734,       869,
   10.3979,       901,
   10.4225,       844,
    10.447,       930,
   10.4716,       865,
   10.4961,       970,
   10.5206,       977,
   10.5452,       972,
   10.5697,      1049,
   10.5942,      1000,
   10.6188,       988,
   10.6433,      1037,
   10.6678,       982,
   10.6924,      1135,
   10.7169,      1007,
   10.7415,      1102,
    10.766,      1094,
   10.7905,      1065,
   10.8151,      1133,
   10.8396,      1078,
   10.8641,      1118,
   10.8887,      1120,
   10.9132,      1142,
   10.9377,      1137,
   10.9623,      1144,
   10.9868,      1225,
   11.0113,      1239,
   11.0359,      1143,
   11.0604,      1242,
    11.085,      1181,
   11.1095,      1250,
    11.134,      1277,
   11.1586,      1241,
   11.1831,      1228,
   11.2076,      1316,
   11.2322,      1382,
   11.2567,      1323,
   11.2812,      1420,
   11.3058,      1507,
   11.3303,      1537,
   11.3549,      1725,
   11.3794,      1752,
   11.4039,      1948,
   11.4285,      2071,
    11.453,      2153,
   11.4775,      2093,
   11.5021,      2045,
   11.5266,      1825,
   11.5511,      1757,
   11.5757,      1621,
   11.6002,      1517,
   11.6248,      1393,
   11.6493,      1339,
   11.6738,      1354,
   11.6984,      1367,
   11.7229,      1369,
   11.7474,      1405,
    11.772,      1311,
   11.7965,      1285,
    11.821,      1416,
   11.8456,      1311,
   11.8701,      1367,
   11.8946,      1319,
   11.9192,      1339,
   11.9437,      1465,
   11.9683,      1392,
   11.9928,      1562,
   12.0173,      1684,
   12.0419,      1693,
   12.0664,      1696,
   12.0909,      1584,
   12.1155,      1548,
     12.14,      1524,
   12.1645,      1421,
   12.1891,      1526,
   12.2136,      1461,
   12.2382,      1548,
   12.2627,      1515,
   12.2872,      1599,
   12.3118,      1770,
   12.3363,      1992,
   12.3608,      2204,
   12.3854,      2469,
   12.4099,      2607,
   12.4344,      2646,
    12.459,      2792,
   12.4835,      2589,
   12.5081,      2344,
   12.5326,      2156,
   12.5571,      1946,
   12.5817,      1733,
   12.6062,      1620,
   12.6307,      1472,
   12.6553,      1371,
   12.6798,      1323,
   12.7043,      1384,
   12.7289,      1264,
   12.7534,      1331,
    12.778,      1297,
   12.8025,      1285,
    12.827,      1287,
   12.8516,      1269,
   12.8761,      1227,
   12.9006,      1275,
   12.9252,      1177,
   12.9497,      1189,
   12.9742,      1238,
   12.9988,      1214,
   13.0233,      1204,
   13.0478,      1165,
   13.0724,      1232,
   13.0969,      1225,
   13.1215,      1169,
    13.146,      1202,
   13.1705,      1179,
   13.1951,      1179,
   13.2196,      1156,
   13.2441,      1232,
   13.2687,      1203,
   13.2932,      1203,
   13.3177,      1185,
   13.3423,      1235,
   13.3668,      1184,
   13.3914,      1222,
   13.4159,      1189,
   13.4404,      1334,
    13.465,      1432,
   13.4895,      1293,
    13.514,      1277,
   13.5386,      1278,
   13.5631,      1260,
   13.5876,      1122,
   13.6122,      1206,
   13.6367,      1203,
   13.6613,      1210,
   13.6858,      1187,
   13.7103,      1133,
   13.7349,      1163,
   13.7594,      1101,
   13.7839,      1184,
   13.8085,      1124,
    13.833,      1128,
   13.8575,      1105,
   13.8821,      1045,
   13.9066,      1098,
   13.9311,      1114,
   13.9557,      1063,
   13.9802,      1137,
   14.0048,      1051,
   14.0293,      1020,
   14.0538,      1056,
   14.0784,      1048,
   14.1029,      1060,
   14.1274,      1109,
    14.152,      1076,
   14.1765,      1088,
    14.201,      1064,
   14.2256,      1106,
   14.2501,      1049,
   14.2747,      1053,
   14.2992,      1053,
   14.3237,      1049,
   14.3483,      1033,
   14.3728,      1029,
   14.3973,      1057,
   14.4219,       990,
   14.4464,      1062,
   14.4709,       973,
   14.4955,      1078,
     14.52,      1017,
   14.5446,      1079,
   14.5691,      1023,
   14.5936,      1047,
   14.6182,      1032,
   14.6427,      1021,
   14.6672,      1088,
   14.6918,       997,
   14.7163,      1017,
   14.7408,      1049,
   14.7654,      1123,
   14.7899,      1174,
   14.8144,      1162,
    14.839,      1226,
   14.8635,      1312,
   14.8881,      1512,
   14.9126,      1563,
   14.9371,      1870,
   14.9617,      1811,
   14.9862,      1984,
   15.0107,      1930,
   15.0353,      1900,
   15.0598,      1824,
   15.0843,      1732,
   15.1089,      1585,
   15.1334,      1587,
    15.158,      1417,
   15.1825,      1347,
    15.207,      1219,
   15.2316,      1138,
   15.2561,      1117,
   15.2806,      1066,
   15.3052,      1044,
   15.3297,       999,
   15.3542,      1021,
   15.3788,       926,
   15.4033,       943,
   15.4279,       989,
   15.4524,       897,
   15.4769,       906,
   15.5015,       899,
    15.526,       921,
   15.5505,       934,
   15.5751,       909,
   15.5996,       918,
   15.6241,       872,
   15.6487,       858,
   15.6732,       898,
   15.6977,       860,
   15.7223,       833,
   15.7468,       857,
   15.7714,       861,
   15.7959,       846,
   15.8204,       857,
    15.845,       876,
   15.8695,       804,
    15.894,       815,
   15.9186,       823,
   15.9431,       824,
   15.9676,       842,
   15.9922,       848,
   16.0167,       852,
   16.0413,       806,
   16.0658,       822,
   16.0903,       790,
   16.1149,       777,
   16.1394,       791,
   16.1639,       777,
   16.1885,       780,
    16.213,       790,
   16.2375,       786,
   16.2621,       820,
   16.2866,       792,
   16.3112,       759,
   16.3357,       835,
   16.3602,       811,
   16.3848,       810,
   16.4093,       852,
   16.4338,       870,
   16.4584,       900,
   16.4829,       884,
   16.5074,       839,
    16.532,       860,
   16.5565,       853,
    16.581,       833,
   16.6056,       843,
   16.6301,       792,
   16.6547,       759,
   16.6792,       723,
   16.7037,       750,
   16.7283,       776,
   16.7528,       764,
   16.7773,       778,
   16.8019,       739,
   16.8264,       768,
   16.8509,       748,
   16.8755,       676,
      16.9,       733,
   16.9246,       770,
   16.9491,       776,
   16.9736,       751,
   16.9982,       755,
   17.0227,       756,
   17.0472,       715,
   17.0718,       737,
   17.0963,       768,
   17.1208,       733,
   17.1454,       737,
   17.1699,       764,
   17.1945,       814,
    17.219,       785,
   17.2435,       800,
   17.2681,       828,
   17.2926,       820,
   17.3171,       805,
   17.3417,       791,
   17.3662,       804,
   17.3907,       790,
   17.4153,       763,
   17.4398,       794,
   17.4643,       775,
   17.4889,       796,
   17.5134,       869,
    17.538,       821,
   17.5625,       811,
    17.587,       830,
   17.6116,       849,
   17.6361,       811,
   17.6606,       837,
   17.6852,       824,
   17.7097,       742,
   17.7342,       777,
   17.7588,       747,
   17.7833,       767,
   17.8079,       733,
   17.8324,       786,
   17.8569,       761,
   17.8815,       705,
    17.906,       786,
   17.9305,       739,
   17.9551,       771,
   17.9796,       772,
   18.0041,       758,
   18.0287,       737,
   18.0532,       720,
   18.0778,       784,
   18.1023,       764,
   18.1268,       748,
   18.1514,       742,
   18.1759,       769,
   18.2004,       753,
    18.225,       681,
   18.2495,       749,
    18.274,       714,
   18.2986,       726,
   18.3231,       706,
   18.3476,       730,
   18.3722,       720,
   18.3967,       719,
   18.4213,       781,
   18.4458,       730,
   18.4703,       712,
   18.4949,       693,
   18.5194,       706,
   18.5439,       715,
   18.5685,       716,
    18.593,       702,
   18.6175,       734,
   18.6421,       769,
   18.6666,       715,
   18.6912,       740,
   18.7157,       732,
   18.7402,       727,
   18.7648,       735,
   18.7893,       687,
   18.8138,       726,
   18.8384,       722,
   18.8629,       762,
   18.8874,       726,
    18.912,       762,
   18.9365,       719,
   18.9611,       755,
   18.9856,       695,
   19.0101,       789,
   19.0347,       712,
   19.0592,       684,
   19.0837,       727,
   19.1083,       708,
   19.1328,       701,
   19.1573,       757,
   19.1819,       692,
   19.2064,       714,
    19.231,       757,
   19.2555,       778,
     19.28,       778,
   19.3046,       752,
   19.3291,       776,
   19.3536,       788,
   19.3782,       860,
   19.4027,       842,
   19.4272,       824,
   19.4518,       827,
   19.4763,       873,
   19.5008,       850,
   19.5254,       825,
   19.5499,       833,
   19.5745,       812,
    19.599,       813,
   19.6235,       843,
   19.6481,       868,
   19.6726,       836,
   19.6971,       812,
   19.7217,       891,
   19.7462,       884,
   19.7707,       988,
   19.7953,      1074,
   19.8198,      1172,
   19.8444,      1143,
   19.8689,      1141,
   19.8934,      1187,
    19.918,      1127,
   19.9425,      1097,
    19.967,      1107,
   19.9916,       983,
   20.0161,       964,
   20.0406,       837,
   20.0652,       812,
   20.0897,       775,
   20.1143,       757,
   20.1388,       754,
   20.1633,       741,
   20.1879,       698,
   20.2124,       707,
   20.2369,       695,
   20.2615,       754,
    20.286,       706,
   20.3105,       720,
   20.3351,       721,
   20.3596,       705,
   20.3841,       690,
   20.4087,       686,
   20.4332,       684,
   20.4578,       708,
   20.4823,       712,
   20.5068,       770,
   20.5314,       687,
   20.5559,       704,
   20.5804,       725,
    20.605,       661,
   20.6295,       735,
    20.654,       748,
   20.6786,       825,
   20.7031,       878,
   20.7277,       909,
   20.7522,       810,
   20.7767,       822,
   20.8013,       726,
   20.8258,       797,
   20.8503,       811,
   20.8749,       755,
   20.8994,       700,
   20.9239,       718,
   20.9485,       689,
    20.973,       683,
   20.9976,       661,
   21.0221,       651,
   21.0466,       697,
   21.0712,       689,
   21.0957,       718,
   21.1202,       710,
   21.1448,       683,
   21.1693,       737,
   21.1938,       732,
   21.2184,       726,
   21.2429,       721,
   21.2674,       730,
    21.292,       749,
   21.3165,       778,
   21.3411,       737,
   21.3656,       726,
   21.3901,       703,
   21.4147,       738,
   21.4392,       705,
   21.4637,       694,
   21.4883,       692,
   21.5128,       710,
   21.5373,       663,
   21.5619,       669,
   21.5864,       677,
    21.611,       711,
   21.6355,       691,
     21.66,       727,
   21.6846,       780,
   21.7091,       782,
   21.7336,       767,
   21.7582,       810,
   21.7827,       795,
   21.8072,       819,
   21.8318,       833,
   21.8563,       783,
   21.8809,       782,
   21.9054,       776,
   21.9299,       775,
   21.9545,       811,
    21.979,       772,
   22.0035,       784,
   22.0281,       790,
   22.0526,       781,
   22.0771,       866,
   22.1017,       824,
   22.1262,       786,
   22.1507,       815,
   22.1753,       776,
   22.1998,       798,
   22.2244,       806,
   22.2489,       828,
   22.2734,       750,
    22.298,       812,
   22.3225,       743,
    22.347,       828,
   22.3716,       769,
   22.3961,       875,
   22.4206,       853,
   22.4452,       922,
   22.4697,       924,
   22.4943,      1007,
   22.5188,      1082,
   22.5433,      1067,
   22.5679,      1039,
   22.5924,      1036,
   22.6169,      1033,
   22.6415,       916,
    22.666,       923,
   22.6905,       887,
   22.7151,       838,
   22.7396,       826,
   22.7642,       824,
   22.7887,       751,
   22.8132,       799,
   22.8378,       753,
   22.8623,       690,
   22.8868,       715,
   22.9114,       673,
   22.9359,       648,
   22.9604,       703,
    22.985,       697,
   23.0095,       654,
    23.034,       691,
   23.0586,       686,
   23.0831,       667,
   23.1077,       610,
   23.1322,       645,
   23.1567,       616,
   23.1813,       664,
   23.2058,       689,
   23.2303,       651,
   23.2549,       687,
   23.2794,       677,
   23.3039,       708,
   23.3285,       716,
    23.353,       647,
   23.3776,       621,
   23.4021,       667,
   23.4266,       673,
   23.4512,       679,
   23.4757,       738,
   23.5002,       717,
   23.5248,       707,
   23.5493,       721,
   23.5738,       748,
   23.5984,       660,
   23.6229,       710,
   23.6475,       684,
    23.672,       694,
   23.6965,       683,
   23.7211,       678,
   23.7456,       715,
   23.7701,       706,
   23.7947,       653,
   23.8192,       708,
   23.8437,       662,
   23.8683,       695,
   23.8928,       673,
   23.9173,       703,
   23.9419,       666,
   23.9664,       631,
    23.991,       682,
   24.0155,       671,
     24.04,       681,
   24.0646,       648,
   24.0891,       703,
   24.1136,       675,
   24.1382,       658,
   24.1627,       666,
   24.1872,       610,
   24.2118,       666,
   24.2363,       693,
   24.2609,       678,
   24.2854,       662,
   24.3099,       680,
   24.3345,       692,
    24.359,       675,
   24.3835,       657,
   24.4081,       681,
   24.4326,       647,
   24.4571,       681,
   24.4817,       654,
   24.5062,       686,
   24.5308,       650,
   24.5553,       662,
   24.5798,       690,
   24.6044,       683,
   24.6289,       659,
   24.6534,       702,
    24.678,       677,
   24.7025,       661,
    24.727,       716,
   24.7516,       657,
   24.7761,       664,
   24.8006,       684,
   24.8252,       784,
   24.8497,       700,
   24.8743,       751,
   24.8988,       821,
   24.9233,       804,
   24.9479,       795,
   24.9724,       832,
   24.9969,       783,
   25.0215,       811,
    25.046,       773,
   25.0705,       759,
   25.0951,       752,
   25.1196,       793,
   25.1442,       759,
   25.1687,       768,
   25.1932,       734,
   25.2178,       698,
   25.2423,       747,
   25.2668,       700,
   25.2914,       719,
   25.3159,       696,
   25.3404,       752,
    25.365,       729,
   25.3895,       691,
   25.4141,       727,
   25.4386,       717,
   25.4631,       750,
   25.4877,       700,
   25.5122,       682,
   25.5367,       699,
   25.5613,       760,
   25.5858,       681,
   25.6103,       712,
   25.6349,       692,
   25.6594,       726,
   25.6839,       687,
   25.7085,       676,
    25.733,       660,
   25.7576,       696,
   25.7821,       715,
   25.8066,       710,
   25.8312,       677,
   25.8557,       691,
   25.8802,       715,
   25.9048,       712,
   25.9293,       679,
   25.9538,       693,
   25.9784,       649,
   26.0029,       699,
   26.0275,       696,
    26.052,       673,
   26.0765,       636,
   26.1011,       653,
   26.1256,       671,
   26.1501,       714,
   26.1747,       671,
   26.1992,       671,
   26.2237,       674,
   26.2483,       714,
   26.2728,       703,
   26.2974,       729,
   26.3219,       682,
   26.3464,       710,
    26.371,       676,
   26.3955,       735,
     26.42,       720,
   26.4446,       696,
   26.4691,       678,
   26.4936,       726,
   26.5182,       711,
   26.5427,       690,
   26.5673,       719,
   26.5918,       727,
   26.6163,       709,
   26.6409,       743,
   26.6654,       733,
   26.6899,       706,
   26.7145,       729,
    26.739,       778,
   26.7635,       785,
   26.7881,       774,
   26.8126,       748,
   26.8371,       734,
   26.8617,       712,
   26.8862,       761,
   26.9108,       735,
   26.9353,       736,
   26.9598,       776,
   26.9844,       755,
   27.0089,       686,
   27.0334,       729,
    27.058,       734,
   27.0825,       715,
    27.107,       739,
   27.1316,       693,
   27.1561,       717,
   27.1807,       714,
   27.2052,       731,
   27.2297,       741,
   27.2543,       722,
   27.2788,       740,
   27.3033,       690,
   27.3279,       680,
   27.3524,       693,
   27.3769,       702,
   27.4015,       714,
    27.426,       697,
   27.4506,       662,
   27.4751,       743,
   27.4996,       692,
   27.5242,       686,
   27.5487,       732,
   27.5732,       706,
   27.5978,       675,
   27.6223,       705,
   27.6468,       737,
   27.6714,       684,
   27.6959,       685,
   27.7204,       704,
    27.745,       726,
   27.7695,       743,
   27.7941,       713,
   27.8186,       730,
   27.8431,       766,
   27.8677,       755,
   27.8922,       740,
   27.9167,       682,
   27.9413,       691,
   27.9658,       712,
   27.9903,       698,
   28.0149,       735,
   28.0394,       727,
    28.064,       696,
   28.0885,       700,
    28.113,       719,
   28.1376,       718,
   28.1621,       674,
   28.1866,       723,
   28.2112,       694,
   28.2357,       694,
   28.2602,       637,
   28.2848,       727,
   28.3093,       697,
   28.3339,       704,
   28.3584,       736,
   28.3829,       711,
   28.4075,       753,
    28.432,       760,
   28.4565,       734,
   28.4811,       721,
   28.5056,       702,
   28.5301,       722,
   28.5547,       720,
   28.5792,       695,
   28.6037,       690,
   28.6283,       702,
   28.6528,       727,
   28.6774,       716,
   28.7019,       687,
   28.7264,       682,
    28.751,       700,
   28.7755,       715,
      28.8,       718,
   28.8246,       692,
   28.8491,       704,
   28.8736,       707,
   28.8982,       698,
   28.9227,       702,
   28.9473,       690,
   28.9718,       710,
   28.9963,       738,
   29.0209,       741,
   29.0454,       687,
   29.0699,       700,
   29.0945,       676,
    29.119,       747,
   29.1435,       690,
   29.1681,       743,
   29.1926,       643,
   29.2172,       694,
   29.2417,       706,
   29.2662,       677,
   29.2908,       659,
   29.3153,       681,
   29.3398,       711,
   29.3644,       718,
   29.3889,       700,
   29.4134,       678,
    29.438,       659,
   29.4625,       668,
    29.487,       655,
   29.5116,       671,
   29.5361,       688,
   29.5607,       690,
   29.5852,       623,
   29.6097,       681,
   29.6343,       655,
   29.6588,       645,
   29.6833,       710,
   29.7079,       697,
   29.7324,       714,
   29.7569,       671,
   29.7815,       707,
    29.806,       661,
   29.8306,       669,
   29.8551,       718,
   29.8796,       701,
   29.9042,       633,
   29.9287,       702,
   29.9532,       658,
   29.9778,       654,
   30.0023,       628,
   30.0268,       724,
   30.0514,       694,
   30.0759,       707,
   30.1005,       723,
    30.125,       710,
   30.1495,       742,
   30.1741,       668,
   30.1986,       770,
   30.2231,       733,
   30.2477,       708,
   30.2722,       702,
   30.2967,       703,
   30.3213,       688,
   30.3458,       724,
   30.3703,       684,
   30.3949,       704,
   30.4194,       647,
    30.444,       717,
   30.4685,       642,
    30.493,       683,
   30.5176,       700,
   30.5421,       697,
   30.5666,       684,
   30.5912,       740,
   30.6157,       696,
   30.6402,       689,
   30.6648,       643,
   30.6893,       629,
   30.7139,       669,
   30.7384,       667,
   30.7629,       679,
   30.7875,       645,
    30.812,       695,
   30.8365,       665,
   30.8611,       641,
   30.8856,       632,
   30.9101,       738,
   30.9347,       689,
   30.9592,       659,
   30.9838,       697,
   31.0083,       734,
   31.0328,       628,
   31.0574,       659,
   31.0819,       646,
   31.1064,       663,
    31.131,       675,
   31.1555,       646,
     31.18,       612,
   31.2046,       629,
   31.2291,       677,
   31.2536,       676,
   31.2782,       638,
   31.3027,       682,
   31.3273,       649,
   31.3518,       677,
   31.3763,       642,
   31.4009,       662,
   31.4254,       673,
   31.4499,       668,
   31.4745,       671,
    31.499,       674,
   31.5235,       680,
   31.5481,       656,
   31.5726,       658,
   31.5972,       645,
   31.6217,       697,
   31.6462,       645,
   31.6708,       674,
   31.6953,       713,
   31.7198,       645,
   31.7444,       643,
   31.7689,       652,
   31.7934,       688,
    31.818,       661,
   31.8425,       687,
   31.8671,       675,
   31.8916,       689,
   31.9161,       667,
   31.9407,       643,
   31.9652,       667,
   31.9897,       677,
   32.0143,       665,
   32.0388,       709,
   32.0633,       690,
   32.0879,       683,
   32.1124,       650,
   32.1369,       680,
   32.1615,       654,
    32.186,       695,
   32.2106,       644,
   32.2351,       621,
   32.2596,       669,
   32.2842,       700,
   32.3087,       630,
   32.3332,       635,
   32.3578,       630,
   32.3823,       593,
   32.4068,       620,
   32.4314,       612,
   32.4559,       617,
   32.4805,       666,
    32.505,       618,
   32.5295,       623,
   32.5541,       616,
   32.5786,       603,
   32.6031,       620,
   32.6277,       656,
   32.6522,       618,
   32.6767,       601,
   32.7013,       581,
   32.7258,       636,
   32.7504,       667,
   32.7749,       626,
   32.7994,       622,
    32.824,       608,
   32.8485,       570,
    32.873,       657,
   32.8976,       625,
   32.9221,       582,
   32.9466,       639,
   32.9712,       638,
   32.9957,       577,
   33.0203,       629,
   33.0448,       626,
   33.0693,       619,
   33.0939,       660,
   33.1184,       618,
   33.1429,       581,
   33.1675,       638,
    33.192,       588,
   33.2165,       666,
   33.2411,       651,
   33.2656,       637,
   33.2901,       666,
   33.3147,       653,
   33.3392,       568,
   33.3638,       613,
   33.3883,       665,
   33.4128,       586,
   33.4374,       661,
   33.4619,       607,
   33.4864,       582,
    33.511,       641,
   33.5355,       614,
     33.56,       629,
   33.5846,       615,
   33.6091,       621,
   33.6337,       612,
   33.6582,       589,
   33.6827,       548,
   33.7073,       591,
   33.7318,       582,
   33.7563,       649,
   33.7809,       614,
   33.8054,       604,
   33.8299,       591,
   33.8545,       590,
    33.879,       566,
   33.9036,       565,
   33.9281,       590,
   33.9526,       582,
   33.9772,       566,
   34.0017,       594,
   34.0262,       618,
   34.0508,       539,
   34.0753,       617,
   34.0998,       591,
   34.1244,       570,
   34.1489,       597,
   34.1734,       579,
    34.198,       582,
   34.2225,       604,
   34.2471,       599,
   34.2716,       585,
   34.2961,       599,
   34.3207,       559,
   34.3452,       586,
   34.3697,       553,
   34.3943,       516,
   34.4188,       588,
   34.4433,       552,
   34.4679,       554,
   34.4924,       575,
    34.517,       601,
   34.5415,       584,
    34.566,       579,
   34.5906,       584,
   34.6151,       574,
   34.6396,       590,
   34.6642,       574,
   34.6887,       557,
   34.7132,       583,
   34.7378,       616,
   34.7623,       564,
   34.7869,       588,
   34.8114,       594,
   34.8359,       573,
   34.8605,       576,
    34.885,       566,
   34.9095,       570,
   34.9341,       612,
   34.9586,       592,
   34.9831,       582,
   35.0077,       582,
   35.0322,       605,
   35.0567,       579,
   35.0813,       538,
   35.1058,       580,
   35.1304,       546,
   35.1549,       554,
   35.1794,       573,
    35.204,       602,
   35.2285,       554,
    35.253,       578,
   35.2776,       551,
   35.3021,       528,
   35.3266,       549,
   35.3512,       569,
   35.3757,       533,
   35.4003,       543,
   35.4248,       572,
   35.4493,       557,
   35.4739,       504,
   35.4984,       514,
   35.5229,       572,
   35.5475,       563,
    35.572,       553,
   35.5965,       580,
   35.6211,       575,
   35.6456,       580,
   35.6702,       552,
   35.6947,       572,
   35.7192,       597,
   35.7438,       603,
   35.7683,       577,
   35.7928,       539,
   35.8174,       591,
   35.8419,       555,
   35.8664,       582,
    35.891,       551,
   35.9155,       549,
     35.94,       536,
   35.9646,       556,
   35.9891,       524,
   36.0137,       571,
   36.0382,       530,
   36.0627,       511,
   36.0873,       588,
   36.1118,       555,
   36.1363,       507,
   36.1609,       564,
   36.1854,       536,
   36.2099,       520,
   36.2345,       549,
    36.259,       527,
   36.2836,       530,
   36.3081,       526,
   36.3326,       529,
   36.3572,       506,
   36.3817,       491,
   36.4062,       545,
   36.4308,       514,
   36.4553,       529,
   36.4798,       513,
   36.5044,       496,
   36.5289,       497,
   36.5535,       534,
    36.578,       521,
   36.6025,       531,
   36.6271,       467,
   36.6516,       455,
   36.6761,       496,
   36.7007,       516,
   36.7252,       539,
   36.7497,       504,
   36.7743,       466,
   36.7988,       501,
   36.8233,       496,
   36.8479,       532,
   36.8724,       443,
    36.897,       497,
   36.9215,       478,
    36.946,       464,
   36.9706,       462,
   36.9951,       493,
   37.0196,       465,
   37.0442,       456,
   37.0687,       491,
   37.0932,       498,
   37.1178,       477,
   37.1423,       473,
   37.1669,       463,
   37.1914,       459,
   37.2159,       500,
   37.2405,       476,
    37.265,       495,
   37.2895,       415,
   37.3141,       472,
   37.3386,       487,
   37.3631,       468,
   37.3877,       477,
   37.4122,       469,
   37.4368,       522,
   37.4613,       465,
   37.4858,       510,
   37.5104,       511,
   37.5349,       450,
   37.5594,       470,
    37.584,       465,
   37.6085,       514,
    37.633,       479,
   37.6576,       452,
   37.6821,       470,
   37.7066,       467,
   37.7312,       467,
   37.7557,       471,
   37.7803,       481,
   37.8048,       440,
   37.8293,       466,
   37.8539,       450,
   37.8784,       483,
   37.9029,       465,
   37.9275,       481,
    37.952,       432,
   37.9765,       442,
   38.0011,       464,
   38.0256,       457,
   38.0502,       442,
   38.0747,       400,
   38.0992,       467,
   38.1238,       418,
   38.1483,       478,
   38.1728,       445,
   38.1974,       475,
   38.2219,       460,
   38.2464,       427,
    38.271,       445,
   38.2955,       444,
   38.3201,       462,
   38.3446,       474,
   38.3691,       455,
   38.3937,       468,
   38.4182,       450,
   38.4427,       436,
   38.4673,       454,
   38.4918,       437,
   38.5163,       472,
   38.5409,       471,
   38.5654,       435,
   38.5899,       453,
   38.6145,       423,
    38.639,       425,
   38.6636,       424,
   38.6881,       478,
   38.7126,       439,
   38.7372,       446,
   38.7617,       426,
   38.7862,       455,
   38.8108,       427,
   38.8353,       418,
   38.8598,       471,
   38.8844,       438,
   38.9089,       413,
   38.9335,       493,
    38.958,       445,
   38.9825,       459,
   39.0071,       453,
   39.0316,       436,
   39.0561,       440,
   39.0807,       450,
   39.1052,       453,
   39.1297,       421,
   39.1543,       453,
   39.1788,       453,
   39.2034,       458,
   39.2279,       464,
   39.2524,       476,
    39.277,       440,
   39.3015,       408,
    39.326,       432,
   39.3506,       466,
   39.3751,       468,
   39.3996,       476,
   39.4242,       430,
   39.4487,       469,
   39.4732,       469,
   39.4978,       483,
   39.5223,       464,
   39.5469,       466,
   39.5714,       458,
   39.5959,       478,
   39.6205,       504,
    39.645,       453,
   39.6695,       405,
   39.6941,       438,
   39.7186,       452,
   39.7431,       460,
   39.7677,       434,
   39.7922,       430,
   39.8168,       456,
   39.8413,       443,
   39.8658,       439,
   39.8904,       500,
   39.9149,       435,
   39.9394,       452,
    39.964,       433,
   39.9885,       477,
