;RAW4.00
[RawHeader]
Date=08/18/2021
EstimatedTotalTime=648.52
FurtherDQLReading=0
HardwareIndicator=65519
MeasuredTotalTime=648.52
MeasurementFlag=1
NumberOfMeasuredRanges=1
NumberOfRanges=1
Time=09:36:15

[VarInfo]
Type=USER
Flags=0
Value=Lab Manager

[VarInfo]
Type=SAMPLEID
Flags=0
Value=

[VarInfo]
Type=COMMENT
Flags=0
Value=

[VarInfo]
Type=UTF
Flags=0
Value=

[VarInfo]
Type=CREATOR
Flags=0
Value=BrmlToV4Converter

[VarInfo]
Type=CREATOR_VERSION
Flags=0
Value=7.3.1.0

[HardwareConfiguration]
AbsorptionFactor=9999
ActivateAbsorber=0
Alpha1=0.7093
Alpha2=0.71359
AlphaAverage=0.71073
AlphaRatio=0.5
Analyzer=0
Anode=Mo
AntiScatteringSlit=18
BeamOpticsFlags=0
Beta=0.63229
BetaRelativeIntensity=0
DeactivateAbsorber=0
DetectorSlit=9999
DivergenceSlit=0.2
GoniometerControl=0
GoniometerDiameter=560
GoniometerModel=512
GoniometerStage=7
Monochromator=0
NearSampleSlit=9999
PrimarySollerSlit=2.5
SampleChanger=0
SecondSollerSlit=9999
SynchronousAxis=0
ThinFilmAttachment=9999
WaveUnit=A

[RangeHeader]
ActuallyUsedLambda=0.71073
AdditionalDetectorMask=257
DataRecordLength=4
DelayTime=0
DisplayPlaneNumber=0
EstimatedScanTime=649
ExtraParametersMask=0
GeneratorCurrent=40
GeneratorVoltage=50
Increment=0.0245361
Increment3=0
NumberOfCompletedData=1427
NumberOfCounts=1
NumberOfDetectors=0
NumberOfDrives=2
NumberOfEncoderDrives=0
NumberOfMeasuredData=1427
NumberOfVaryingParameters=0
RangeStartTime=0
RotationSpeed=60
ScanMode=1
ScanType=Locked Coupled
SimulatedMeasConditions=0
SlitChangerIn=0
SmootingWidth=0
Start=5
Steps=1427
SynchronousRotation=0
Time=76.8

[VarInfo]
Type=PSD_DISCRIM
Flags=0
Value=0.488;0.518

[PSD]
ActualTwoTheta=9999
FirstUsedChannel=0
FixedPSD=0
PSDOpening=2.94433
PSDType=5

[Drive]
DriveFlags=1
DriveName=2Theta
DriveNumber=2
DriveOffset=0
OffsetIndex=0
OscillationAmplitude=0
OscillationSpeed=0
StartPosition=5

[Drive]
DriveFlags=1
DriveName=Theta
DriveNumber=1
DriveOffset=0
OffsetIndex=0
OscillationAmplitude=0
OscillationSpeed=0
StartPosition=2.5

[Data]
     Angle,       PSD,
         5,      1313,
   5.02454,      1450,
   5.04907,      1217,
   5.07361,      1387,
   5.09814,      1347,
   5.12268,      1238,
   5.14722,      1380,
   5.17175,      1272,
   5.19629,      1353,
   5.22083,      1359,
   5.24536,      1237,
    5.2699,      1358,
   5.29443,      1273,
   5.31897,      1380,
   5.34351,      1381,
   5.36804,      1325,
   5.39258,      1419,
   5.41711,      1239,
   5.44165,      1333,
   5.46619,      1329,
   5.49072,      1233,
   5.51526,      1394,
   5.53979,      1224,
   5.56433,      1367,
   5.58887,      1343,
    5.6134,      1188,
   5.63794,      1321,
   5.66248,      1224,
   5.68701,      1332,
   5.71155,      1318,
   5.73608,      1156,
   5.76062,      1321,
   5.78516,      1198,
   5.80969,      1236,
   5.83423,      1247,
   5.85876,      1140,
    5.8833,      1225,
   5.90784,      1173,
   5.93237,      1254,
   5.95691,      1225,
   5.98144,      1112,
   6.00598,      1188,
   6.03052,      1128,
   6.05505,      1197,
   6.07959,      1236,
   6.10413,      1051,
   6.12866,      1193,
    6.1532,      1087,
   6.17773,      1153,
   6.20227,      1181,
   6.22681,      1053,
   6.25134,      1158,
   6.27588,      1077,
   6.30041,      1130,
   6.32495,      1106,
   6.34949,       993,
   6.37402,      1150,
   6.39856,      1000,
    6.4231,      1075,
   6.44763,      1063,
   6.47217,      1020,
    6.4967,      1082,
   6.52124,      1081,
   6.54578,       988,
   6.57031,      1046,
   6.59485,       951,
   6.61938,      1095,
   6.64392,       956,
   6.66846,      1006,
   6.69299,      1035,
   6.71753,       921,
   6.74206,      1084,
    6.7666,       985,
   6.79114,       975,
   6.81567,      1034,
   6.84021,       921,
   6.86475,       990,
   6.88928,       879,
   6.91382,       972,
   6.93835,       995,
   6.96289,       885,
   6.98743,      1009,
   7.01196,       858,
    7.0365,       932,
   7.06103,      1006,
   7.08557,       914,
   7.11011,       955,
   7.13464,       857,
   7.15918,       952,
   7.18371,       971,
   7.20825,       887,
   7.23279,      1006,
   7.25732,       892,
   7.28186,       871,
    7.3064,       928,
   7.33093,       840,
   7.35547,       975,
      7.38,       897,
   7.40454,       955,
   7.42908,       944,
   7.45361,       849,
   7.47815,       954,
   7.50268,       813,
   7.52722,       866,
   7.55176,       896,
   7.57629,       783,
   7.60083,       965,
   7.62536,       870,
    7.6499,       902,
   7.67444,       921,
   7.69897,       839,
   7.72351,       925,
   7.74805,       834,
   7.77258,       862,
   7.79712,       912,
   7.82165,       826,
   7.84619,       873,
   7.87073,       739,
   7.89526,       755,
    7.9198,       754,
   7.94433,       641,
   7.96887,       762,
   7.99341,       661,
   8.01794,       703,
   8.04248,       700,
   8.06702,       599,
   8.09155,       717,
   8.11609,       596,
   8.14062,       682,
   8.16516,       655,
    8.1897,       596,
   8.21423,       724,
   8.23877,       579,
    8.2633,       652,
   8.28784,       678,
   8.31238,       583,
   8.33691,       719,
   8.36145,       614,
   8.38598,       685,
   8.41052,       683,
   8.43506,       611,
   8.45959,       712,
   8.48413,       617,
   8.50867,       666,
    8.5332,       689,
   8.55774,       551,
   8.58227,       696,
   8.60681,       583,
   8.63135,       687,
   8.65588,       732,
   8.68042,       599,
   8.70495,       692,
   8.72949,       582,
   8.75403,       661,
   8.77856,       660,
    8.8031,       556,
   8.82763,       727,
   8.85217,       652,
   8.87671,       687,
   8.90124,       696,
   8.92578,       599,
   8.95032,       688,
   8.97485,       606,
   8.99939,       681,
   9.02392,       721,
   9.04846,       584,
     9.073,       741,
   9.09753,       578,
   9.12207,       677,
    9.1466,       713,
   9.17114,       614,
   9.19568,       736,
   9.22021,       648,
   9.24475,       720,
   9.26929,       768,
   9.29382,       671,
   9.31836,       793,
   9.34289,       675,
   9.36743,       774,
   9.39197,       764,
    9.4165,       699,
   9.44104,       843,
   9.46557,       746,
   9.49011,       796,
   9.51465,       845,
   9.53918,       816,
   9.56372,       887,
   9.58825,       859,
   9.61279,       927,
   9.63733,       944,
   9.66186,       912,
    9.6864,      1102,
   9.71094,       928,
   9.73547,      1008,
   9.76001,       945,
   9.78454,       929,
   9.80908,      1043,
   9.83362,       969,
   9.85815,      1068,
   9.88269,      1023,
   9.90722,      1022,
   9.93176,      1071,
    9.9563,      1058,
   9.98083,       996,
   10.0054,      1100,
   10.0299,      1084,
   10.0544,      1188,
    10.079,      1168,
   10.1035,      1154,
    10.128,      1195,
   10.1526,      1125,
   10.1771,      1236,
   10.2017,      1197,
   10.2262,      1191,
   10.2507,      1271,
   10.2753,      1240,
   10.2998,      1356,
   10.3243,      1231,
   10.3489,      1226,
   10.3734,      1297,
   10.3979,      1262,
   10.4225,      1343,
    10.447,      1337,
   10.4716,      1335,
   10.4961,      1462,
   10.5206,      1339,
   10.5452,      1404,
   10.5697,      1406,
   10.5942,      1526,
   10.6188,      1497,
   10.6433,      1488,
   10.6678,      1556,
   10.6924,      1469,
   10.7169,      1523,
   10.7415,      1437,
    10.766,      1440,
   10.7905,      1513,
   10.8151,      1518,
   10.8396,      1487,
   10.8641,      1511,
   10.8887,      1488,
   10.9132,      1557,
   10.9377,      1553,
   10.9623,      1552,
   10.9868,      1574,
   11.0113,      1494,
   11.0359,      1548,
   11.0604,      1579,
    11.085,      1587,
   11.1095,      1583,
    11.134,      1542,
   11.1586,      1646,
   11.1831,      1641,
   11.2076,      1582,
   11.2322,      1566,
   11.2567,      1631,
   11.2812,      1653,
   11.3058,      1654,
   11.3303,      1738,
   11.3549,      1758,
   11.3794,      1874,
   11.4039,      1953,
   11.4285,      2112,
    11.453,      2162,
   11.4775,      2191,
   11.5021,      2072,
   11.5266,      1938,
   11.5511,      1898,
   11.5757,      1765,
   11.6002,      1728,
   11.6248,      1654,
   11.6493,      1677,
   11.6738,      1580,
   11.6984,      1689,
   11.7229,      1628,
   11.7474,      1644,
    11.772,      1644,
   11.7965,      1573,
    11.821,      1600,
   11.8456,      1617,
   11.8701,      1644,
   11.8946,      1584,
   11.9192,      1611,
   11.9437,      1580,
   11.9683,      1620,
   11.9928,      1622,
   12.0173,      1671,
   12.0419,      1585,
   12.0664,      1520,
   12.0909,      1559,
   12.1155,      1690,
     12.14,      1703,
   12.1645,      1557,
   12.1891,      1632,
   12.2136,      1667,
   12.2382,      1627,
   12.2627,      1691,
   12.2872,      1660,
   12.3118,      1787,
   12.3363,      1888,
   12.3608,      1966,
   12.3854,      2165,
   12.4099,      2249,
   12.4344,      2305,
    12.459,      2369,
   12.4835,      2146,
   12.5081,      2159,
   12.5326,      1992,
   12.5571,      1763,
   12.5817,      1759,
   12.6062,      1691,
   12.6307,      1602,
   12.6553,      1541,
   12.6798,      1528,
   12.7043,      1528,
   12.7289,      1510,
   12.7534,      1515,
    12.778,      1520,
   12.8025,      1488,
    12.827,      1506,
   12.8516,      1428,
   12.8761,      1457,
   12.9006,      1425,
   12.9252,      1513,
   12.9497,      1488,
   12.9742,      1413,
   12.9988,      1417,
   13.0233,      1485,
   13.0478,      1435,
   13.0724,      1485,
   13.0969,      1383,
   13.1215,      1446,
    13.146,      1407,
   13.1705,      1374,
   13.1951,      1373,
   13.2196,      1400,
   13.2441,      1417,
   13.2687,      1465,
   13.2932,      1486,
   13.3177,      1478,
   13.3423,      1443,
   13.3668,      1506,
   13.3914,      1615,
   13.4159,      1747,
   13.4404,      2117,
    13.465,      2764,
   13.4895,      2562,
    13.514,      2119,
   13.5386,      2328,
   13.5631,      2191,
   13.5876,      1751,
   13.6122,      1565,
   13.6367,      1541,
   13.6613,      1438,
   13.6858,      1370,
   13.7103,      1325,
   13.7349,      1343,
   13.7594,      1327,
   13.7839,      1263,
   13.8085,      1328,
    13.833,      1263,
   13.8575,      1274,
   13.8821,      1319,
   13.9066,      1316,
   13.9311,      1270,
   13.9557,      1306,
   13.9802,      1339,
   14.0048,      1269,
   14.0293,      1248,
   14.0538,      1302,
   14.0784,      1297,
   14.1029,      1241,
   14.1274,      1267,
    14.152,      1287,
   14.1765,      1308,
    14.201,      1255,
   14.2256,      1200,
   14.2501,      1216,
   14.2747,      1192,
   14.2992,      1287,
   14.3237,      1154,
   14.3483,      1206,
   14.3728,      1259,
   14.3973,      1176,
   14.4219,      1222,
   14.4464,      1233,
   14.4709,      1226,
   14.4955,      1239,
     14.52,      1229,
   14.5446,      1258,
   14.5691,      1275,
   14.5936,      1165,
   14.6182,      1187,
   14.6427,      1169,
   14.6672,      1154,
   14.6918,      1222,
   14.7163,      1157,
   14.7408,      1120,
   14.7654,      1147,
   14.7899,      1169,
   14.8144,      1205,
    14.839,      1277,
   14.8635,      1261,
   14.8881,      1363,
   14.9126,      1412,
   14.9371,      1587,
   14.9617,      1695,
   14.9862,      1674,
   15.0107,      1680,
   15.0353,      1728,
   15.0598,      1617,
   15.0843,      1508,
   15.1089,      1475,
   15.1334,      1324,
    15.158,      1250,
   15.1825,      1184,
    15.207,      1191,
   15.2316,      1113,
   15.2561,      1192,
   15.2806,      1125,
   15.3052,      1133,
   15.3297,      1072,
   15.3542,      1016,
   15.3788,      1048,
   15.4033,      1027,
   15.4279,      1075,
   15.4524,      1020,
   15.4769,      1052,
   15.5015,      1036,
    15.526,       987,
   15.5505,      1006,
   15.5751,      1009,
   15.5996,       953,
   15.6241,       988,
   15.6487,       975,
   15.6732,      1031,
   15.6977,       966,
   15.7223,       931,
   15.7468,       987,
   15.7714,       946,
   15.7959,      1012,
   15.8204,       953,
    15.845,       954,
   15.8695,       943,
    15.894,       888,
   15.9186,       937,
   15.9431,       911,
   15.9676,       931,
   15.9922,       928,
   16.0167,       955,
   16.0413,       890,
   16.0658,       942,
   16.0903,       983,
   16.1149,       871,
   16.1394,       910,
   16.1639,       901,
   16.1885,       923,
    16.213,       894,
   16.2375,       898,
   16.2621,       918,
   16.2866,       897,
   16.3112,       914,
   16.3357,       912,
   16.3602,      1002,
   16.3848,      1030,
   16.4093,      1110,
   16.4338,      1018,
   16.4584,       942,
   16.4829,       961,
   16.5074,       937,
    16.532,       917,
   16.5565,       927,
    16.581,       903,
   16.6056,       895,
   16.6301,       863,
   16.6547,       819,
   16.6792,       809,
   16.7037,       783,
   16.7283,       856,
   16.7528,       838,
   16.7773,       823,
   16.8019,       818,
   16.8264,       805,
   16.8509,       829,
   16.8755,       815,
      16.9,       811,
   16.9246,       815,
   16.9491,       803,
   16.9736,       807,
   16.9982,       801,
   17.0227,       837,
   17.0472,       819,
   17.0718,       784,
   17.0963,       766,
   17.1208,       827,
   17.1454,       770,
   17.1699,       811,
   17.1945,       870,
    17.219,       799,
   17.2435,       815,
   17.2681,       771,
   17.2926,       789,
   17.3171,       800,
   17.3417,       776,
   17.3662,       756,
   17.3907,       793,
   17.4153,       823,
   17.4398,       766,
   17.4643,       758,
   17.4889,       783,
   17.5134,       819,
    17.538,       810,
   17.5625,       788,
    17.587,       799,
   17.6116,       794,
   17.6361,       838,
   17.6606,       846,
   17.6852,       793,
   17.7097,       837,
   17.7342,       822,
   17.7588,       822,
   17.7833,       861,
   17.8079,       793,
   17.8324,       865,
   17.8569,       951,
   17.8815,       931,
    17.906,      1007,
   17.9305,      1003,
   17.9551,       958,
   17.9796,       954,
   18.0041,       909,
   18.0287,       929,
   18.0532,       859,
   18.0778,       838,
   18.1023,       806,
   18.1268,       800,
   18.1514,       830,
   18.1759,       777,
   18.2004,       780,
    18.225,       798,
   18.2495,       745,
    18.274,       733,
   18.2986,       702,
   18.3231,       747,
   18.3476,       815,
   18.3722,       766,
   18.3967,       783,
   18.4213,       741,
   18.4458,       765,
   18.4703,       793,
   18.4949,       784,
   18.5194,       832,
   18.5439,       735,
   18.5685,       760,
    18.593,       779,
   18.6175,       770,
   18.6421,       764,
   18.6666,       768,
   18.6912,       811,
   18.7157,       766,
   18.7402,       719,
   18.7648,       782,
   18.7893,       763,
   18.8138,       751,
   18.8384,       758,
   18.8629,       768,
   18.8874,       768,
    18.912,       808,
   18.9365,       808,
   18.9611,       729,
   18.9856,       773,
   19.0101,       747,
   19.0347,       740,
   19.0592,       744,
   19.0837,       774,
   19.1083,       792,
   19.1328,       749,
   19.1573,       768,
   19.1819,       716,
   19.2064,       726,
    19.231,       753,
   19.2555,       764,
     19.28,       772,
   19.3046,       777,
   19.3291,       815,
   19.3536,       816,
   19.3782,       816,
   19.4027,       874,
   19.4272,       813,
   19.4518,       836,
   19.4763,       835,
   19.5008,       828,
   19.5254,       900,
   19.5499,      1019,
   19.5745,       936,
    19.599,       892,
   19.6235,       876,
   19.6481,       940,
   19.6726,       870,
   19.6971,       878,
   19.7217,       793,
   19.7462,       917,
   19.7707,       943,
   19.7953,       980,
   19.8198,      1101,
   19.8444,      1036,
   19.8689,      1004,
   19.8934,      1076,
    19.918,      1004,
   19.9425,      1021,
    19.967,       939,
   19.9916,       893,
   20.0161,       850,
   20.0406,       863,
   20.0652,       859,
   20.0897,       819,
   20.1143,       847,
   20.1388,       738,
   20.1633,       822,
   20.1879,       737,
   20.2124,       751,
   20.2369,       751,
   20.2615,       758,
    20.286,       738,
   20.3105,       752,
   20.3351,       729,
   20.3596,       797,
   20.3841,       759,
   20.4087,       780,
   20.4332,       756,
   20.4578,       778,
   20.4823,       742,
   20.5068,       750,
   20.5314,       733,
   20.5559,       778,
   20.5804,       820,
    20.605,       766,
   20.6295,       699,
    20.654,       759,
   20.6786,       740,
   20.7031,       731,
   20.7277,       741,
   20.7522,       679,
   20.7767,       736,
   20.8013,       715,
   20.8258,       700,
   20.8503,       680,
   20.8749,       709,
   20.8994,       709,
   20.9239,       779,
   20.9485,       731,
    20.973,       727,
   20.9976,       750,
   21.0221,       730,
   21.0466,       726,
   21.0712,       772,
   21.0957,       698,
   21.1202,       758,
   21.1448,       727,
   21.1693,       740,
   21.1938,       732,
   21.2184,       772,
   21.2429,       782,
   21.2674,       814,
    21.292,       819,
   21.3165,       819,
   21.3411,       825,
   21.3656,       770,
   21.3901,       840,
   21.4147,       953,
   21.4392,      1043,
   21.4637,       889,
   21.4883,       888,
   21.5128,       841,
   21.5373,       845,
   21.5619,       842,
   21.5864,       747,
    21.611,       809,
   21.6355,       788,
     21.66,       783,
   21.6846,       837,
   21.7091,       787,
   21.7336,       758,
   21.7582,       799,
   21.7827,       805,
   21.8072,       806,
   21.8318,       838,
   21.8563,       987,
   21.8809,       926,
   21.9054,       841,
   21.9299,       856,
   21.9545,       809,
    21.979,       888,
   22.0035,       860,
   22.0281,       860,
   22.0526,       844,
   22.0771,       823,
   22.1017,       791,
   22.1262,       829,
   22.1507,       824,
   22.1753,       777,
   22.1998,       774,
   22.2244,       834,
   22.2489,       803,
   22.2734,       745,
    22.298,       801,
   22.3225,       769,
    22.347,       774,
   22.3716,       784,
   22.3961,       773,
   22.4206,       857,
   22.4452,       838,
   22.4697,       846,
   22.4943,       959,
   22.5188,       982,
   22.5433,       967,
   22.5679,       970,
   22.5924,       894,
   22.6169,       841,
   22.6415,       855,
    22.666,       831,
   22.6905,       837,
   22.7151,       817,
   22.7396,       812,
   22.7642,       802,
   22.7887,       723,
   22.8132,       750,
   22.8378,       726,
   22.8623,       705,
   22.8868,       718,
   22.9114,       690,
   22.9359,       736,
   22.9604,       736,
    22.985,       713,
   23.0095,       694,
    23.034,       712,
   23.0586,       687,
   23.0831,       704,
   23.1077,       687,
   23.1322,       717,
   23.1567,       672,
   23.1813,       698,
   23.2058,       692,
   23.2303,       622,
   23.2549,       671,
   23.2794,       729,
   23.3039,       708,
   23.3285,       659,
    23.353,       674,
   23.3776,       659,
   23.4021,       662,
   23.4266,       713,
   23.4512,       684,
   23.4757,       709,
   23.5002,       708,
   23.5248,       672,
   23.5493,       636,
   23.5738,       678,
   23.5984,       666,
   23.6229,       677,
   23.6475,       635,
    23.672,       699,
   23.6965,       654,
   23.7211,       729,
   23.7456,       704,
   23.7701,       680,
   23.7947,       658,
   23.8192,       700,
   23.8437,       701,
   23.8683,       710,
   23.8928,       679,
   23.9173,       660,
   23.9419,       678,
   23.9664,       705,
    23.991,       654,
   24.0155,       652,
     24.04,       681,
   24.0646,       650,
   24.0891,       684,
   24.1136,       687,
   24.1382,       746,
   24.1627,       674,
   24.1872,       696,
   24.2118,       668,
   24.2363,       675,
   24.2609,       741,
   24.2854,       745,
   24.3099,       694,
   24.3345,       685,
    24.359,       642,
   24.3835,       642,
   24.4081,       665,
   24.4326,       665,
   24.4571,       674,
   24.4817,       674,
   24.5062,       725,
   24.5308,       718,
   24.5553,       668,
   24.5798,       666,
   24.6044,       684,
   24.6289,       726,
   24.6534,       717,
    24.678,       728,
   24.7025,       658,
    24.727,       686,
   24.7516,       700,
   24.7761,       702,
   24.8006,       725,
   24.8252,       723,
   24.8497,       717,
   24.8743,       741,
   24.8988,       793,
   24.9233,       801,
   24.9479,       795,
   24.9724,       787,
   24.9969,       732,
   25.0215,       815,
    25.046,       798,
   25.0705,       795,
   25.0951,       805,
   25.1196,       747,
   25.1442,       790,
   25.1687,       743,
   25.1932,       768,
   25.2178,       753,
   25.2423,       801,
   25.2668,       769,
   25.2914,       703,
   25.3159,       812,
   25.3404,       744,
    25.365,       728,
   25.3895,       758,
   25.4141,       785,
   25.4386,       760,
   25.4631,       730,
   25.4877,       719,
   25.5122,       791,
   25.5367,       723,
   25.5613,       754,
   25.5858,       819,
   25.6103,       781,
   25.6349,       784,
   25.6594,       774,
   25.6839,       747,
   25.7085,       727,
    25.733,       766,
   25.7576,       772,
   25.7821,       711,
   25.8066,       670,
   25.8312,       716,
   25.8557,       754,
   25.8802,       691,
   25.9048,       761,
   25.9293,       725,
   25.9538,       689,
   25.9784,       706,
   26.0029,       701,
   26.0275,       706,
    26.052,       700,
   26.0765,       734,
   26.1011,       677,
   26.1256,       721,
   26.1501,       663,
   26.1747,       646,
   26.1992,       727,
   26.2237,       669,
   26.2483,       662,
   26.2728,       679,
   26.2974,       730,
   26.3219,       735,
   26.3464,       771,
    26.371,       689,
   26.3955,       699,
     26.42,       754,
   26.4446,       730,
   26.4691,       735,
   26.4936,       707,
   26.5182,       714,
   26.5427,       735,
   26.5673,       747,
   26.5918,       671,
   26.6163,       694,
   26.6409,       748,
   26.6654,       775,
   26.6899,       695,
   26.7145,       714,
    26.739,       689,
   26.7635,       700,
   26.7881,       699,
   26.8126,       776,
   26.8371,       754,
   26.8617,       760,
   26.8862,       733,
   26.9108,       718,
   26.9353,       767,
   26.9598,       829,
   26.9844,       848,
   27.0089,       840,
   27.0334,       765,
    27.058,       789,
   27.0825,       788,
    27.107,       752,
   27.1316,       789,
   27.1561,       738,
   27.1807,       720,
   27.2052,       767,
   27.2297,       754,
   27.2543,       750,
   27.2788,       718,
   27.3033,       738,
   27.3279,       702,
   27.3524,       750,
   27.3769,       691,
   27.4015,       682,
    27.426,       728,
   27.4506,       713,
   27.4751,       743,
   27.4996,       728,
   27.5242,       696,
   27.5487,       738,
   27.5732,       674,
   27.5978,       662,
   27.6223,       707,
   27.6468,       704,
   27.6714,       731,
   27.6959,       732,
   27.7204,       718,
    27.745,       710,
   27.7695,       726,
   27.7941,       748,
   27.8186,       727,
   27.8431,       715,
   27.8677,       755,
   27.8922,       779,
   27.9167,       755,
   27.9413,       767,
   27.9658,       709,
   27.9903,       694,
   28.0149,       759,
   28.0394,       740,
    28.064,       722,
   28.0885,       697,
    28.113,       737,
   28.1376,       744,
   28.1621,       739,
   28.1866,       705,
   28.2112,       728,
   28.2357,       645,
   28.2602,       690,
   28.2848,       694,
   28.3093,       682,
   28.3339,       694,
   28.3584,       770,
   28.3829,       669,
   28.4075,       692,
    28.432,       714,
   28.4565,       731,
   28.4811,       735,
   28.5056,       690,
   28.5301,       730,
   28.5547,       744,
   28.5792,       758,
   28.6037,       753,
   28.6283,       721,
   28.6528,       788,
   28.6774,       701,
   28.7019,       709,
   28.7264,       782,
    28.751,       789,
   28.7755,       746,
      28.8,       763,
   28.8246,       765,
   28.8491,       718,
   28.8736,       773,
   28.8982,       673,
   28.9227,       767,
   28.9473,       723,
   28.9718,       722,
   28.9963,       784,
   29.0209,       722,
   29.0454,       680,
   29.0699,       702,
   29.0945,       700,
    29.119,       690,
   29.1435,       704,
   29.1681,       699,
   29.1926,       715,
   29.2172,       678,
   29.2417,       671,
   29.2662,       709,
   29.2908,       660,
   29.3153,       725,
   29.3398,       697,
   29.3644,       705,
   29.3889,       687,
   29.4134,       692,
    29.438,       704,
   29.4625,       639,
    29.487,       699,
   29.5116,       661,
   29.5361,       658,
   29.5607,       661,
   29.5852,       671,
   29.6097,       718,
   29.6343,       672,
   29.6588,       750,
   29.6833,       668,
   29.7079,       663,
   29.7324,       647,
   29.7569,       664,
   29.7815,       634,
    29.806,       610,
   29.8306,       661,
   29.8551,       699,
   29.8796,       635,
   29.9042,       696,
   29.9287,       645,
   29.9532,       708,
   29.9778,       643,
   30.0023,       711,
   30.0268,       684,
   30.0514,       733,
   30.0759,       651,
   30.1005,       701,
    30.125,       709,
   30.1495,       679,
   30.1741,       658,
   30.1986,       693,
   30.2231,       702,
   30.2477,       655,
   30.2722,       719,
   30.2967,       710,
   30.3213,       682,
   30.3458,       676,
   30.3703,       705,
   30.3949,       717,
   30.4194,       670,
    30.444,       676,
   30.4685,       673,
    30.493,       678,
   30.5176,       694,
   30.5421,       695,
   30.5666,       692,
   30.5912,       653,
   30.6157,       676,
   30.6402,       665,
   30.6648,       675,
   30.6893,       661,
   30.7139,       692,
   30.7384,       677,
   30.7629,       684,
   30.7875,       639,
    30.812,       678,
   30.8365,       683,
   30.8611,       682,
   30.8856,       663,
   30.9101,       706,
   30.9347,       666,
   30.9592,       651,
   30.9838,       631,
   31.0083,       606,
   31.0328,       674,
   31.0574,       692,
   31.0819,       652,
   31.1064,       677,
    31.131,       606,
   31.1555,       667,
     31.18,       591,
   31.2046,       652,
   31.2291,       621,
   31.2536,       626,
   31.2782,       663,
   31.3027,       655,
   31.3273,       636,
   31.3518,       645,
   31.3763,       629,
   31.4009,       668,
   31.4254,       705,
   31.4499,       677,
   31.4745,       659,
    31.499,       668,
   31.5235,       656,
   31.5481,       649,
   31.5726,       621,
   31.5972,       654,
   31.6217,       674,
   31.6462,       705,
   31.6708,       649,
   31.6953,       726,
   31.7198,       652,
   31.7444,       644,
   31.7689,       671,
   31.7934,       694,
    31.818,       651,
   31.8425,       649,
   31.8671,       685,
   31.8916,       648,
   31.9161,       602,
   31.9407,       661,
   31.9652,       648,
   31.9897,       672,
   32.0143,       718,
   32.0388,       680,
   32.0633,       676,
   32.0879,       668,
   32.1124,       659,
   32.1369,       681,
   32.1615,       652,
    32.186,       653,
   32.2106,       690,
   32.2351,       616,
   32.2596,       654,
   32.2842,       618,
   32.3087,       649,
   32.3332,       666,
   32.3578,       621,
   32.3823,       601,
   32.4068,       656,
   32.4314,       635,
   32.4559,       647,
   32.4805,       630,
    32.505,       677,
   32.5295,       584,
   32.5541,       635,
   32.5786,       606,
   32.6031,       605,
   32.6277,       614,
   32.6522,       658,
   32.6767,       573,
   32.7013,       618,
   32.7258,       584,
   32.7504,       629,
   32.7749,       601,
   32.7994,       584,
    32.824,       643,
   32.8485,       606,
    32.873,       615,
   32.8976,       603,
   32.9221,       611,
   32.9466,       617,
   32.9712,       615,
   32.9957,       587,
   33.0203,       622,
   33.0448,       566,
   33.0693,       628,
   33.0939,       585,
   33.1184,       591,
   33.1429,       600,
   33.1675,       615,
    33.192,       608,
   33.2165,       599,
   33.2411,       622,
   33.2656,       612,
   33.2901,       634,
   33.3147,       655,
   33.3392,       645,
   33.3638,       643,
   33.3883,       668,
   33.4128,       625,
   33.4374,       588,
   33.4619,       612,
   33.4864,       611,
    33.511,       643,
   33.5355,       605,
     33.56,       610,
   33.5846,       587,
   33.6091,       585,
   33.6337,       577,
   33.6582,       607,
   33.6827,       568,
   33.7073,       568,
   33.7318,       610,
   33.7563,       602,
   33.7809,       604,
   33.8054,       626,
   33.8299,       576,
   33.8545,       582,
    33.879,       612,
   33.9036,       583,
   33.9281,       577,
   33.9526,       569,
   33.9772,       540,
   34.0017,       549,
   34.0262,       588,
   34.0508,       538,
   34.0753,       583,
   34.0998,       550,
   34.1244,       559,
   34.1489,       542,
   34.1734,       567,
    34.198,       556,
   34.2225,       559,
   34.2471,       585,
   34.2716,       536,
   34.2961,       541,
   34.3207,       549,
   34.3452,       565,
   34.3697,       589,
   34.3943,       547,
   34.4188,       531,
   34.4433,       559,
   34.4679,       536,
   34.4924,       537,
    34.517,       542,
   34.5415,       559,
    34.566,       579,
   34.5906,       575,
   34.6151,       542,
   34.6396,       549,
   34.6642,       567,
   34.6887,       572,
   34.7132,       562,
   34.7378,       572,
   34.7623,       578,
   34.7869,       535,
   34.8114,       555,
   34.8359,       566,
   34.8605,       605,
    34.885,       557,
   34.9095,       583,
   34.9341,       602,
   34.9586,       593,
   34.9831,       631,
   35.0077,       554,
   35.0322,       580,
   35.0567,       578,
   35.0813,       609,
   35.1058,       625,
   35.1304,       538,
   35.1549,       543,
   35.1794,       575,
    35.204,       537,
   35.2285,       541,
    35.253,       549,
   35.2776,       571,
   35.3021,       561,
   35.3266,       498,
   35.3512,       504,
   35.3757,       528,
   35.4003,       518,
   35.4248,       559,
   35.4493,       523,
   35.4739,       511,
   35.4984,       519,
   35.5229,       524,
   35.5475,       545,
    35.572,       527,
   35.5965,       515,
   35.6211,       544,
   35.6456,       538,
   35.6702,       543,
   35.6947,       579,
   35.7192,       573,
   35.7438,       564,
   35.7683,       555,
   35.7928,       559,
   35.8174,       522,
   35.8419,       614,
   35.8664,       560,
    35.891,       612,
   35.9155,       550,
     35.94,       521,
   35.9646,       526,
   35.9891,       559,
   36.0137,       530,
   36.0382,       515,
   36.0627,       527,
   36.0873,       543,
   36.1118,       547,
   36.1363,       543,
   36.1609,       535,
   36.1854,       556,
   36.2099,       539,
   36.2345,       491,
    36.259,       542,
   36.2836,       520,
   36.3081,       516,
   36.3326,       520,
   36.3572,       551,
   36.3817,       538,
   36.4062,       523,
   36.4308,       514,
   36.4553,       516,
   36.4798,       482,
   36.5044,       487,
   36.5289,       471,
   36.5535,       477,
    36.578,       492,
   36.6025,       510,
   36.6271,       517,
   36.6516,       511,
   36.6761,       475,
   36.7007,       478,
   36.7252,       497,
   36.7497,       463,
   36.7743,       447,
   36.7988,       469,
   36.8233,       457,
   36.8479,       505,
   36.8724,       470,
    36.897,       483,
   36.9215,       415,
    36.946,       485,
   36.9706,       415,
   36.9951,       430,
   37.0196,       484,
   37.0442,       470,
   37.0687,       431,
   37.0932,       480,
   37.1178,       484,
   37.1423,       446,
   37.1669,       436,
   37.1914,       430,
   37.2159,       478,
   37.2405,       477,
    37.265,       427,
   37.2895,       430,
   37.3141,       513,
   37.3386,       488,
   37.3631,       457,
   37.3877,       478,
   37.4122,       480,
   37.4368,       465,
   37.4613,       460,
   37.4858,       454,
   37.5104,       442,
   37.5349,       445,
   37.5594,       483,
    37.584,       415,
   37.6085,       467,
    37.633,       439,
   37.6576,       484,
   37.6821,       476,
   37.7066,       448,
   37.7312,       460,
   37.7557,       450,
   37.7803,       434,
   37.8048,       477,
   37.8293,       469,
   37.8539,       445,
   37.8784,       426,
   37.9029,       423,
   37.9275,       411,
    37.952,       469,
   37.9765,       368,
   38.0011,       433,
   38.0256,       469,
   38.0502,       429,
   38.0747,       427,
   38.0992,       456,
   38.1238,       453,
   38.1483,       439,
   38.1728,       432,
   38.1974,       437,
   38.2219,       431,
   38.2464,       432,
    38.271,       391,
   38.2955,       390,
   38.3201,       438,
   38.3446,       434,
   38.3691,       444,
   38.3937,       411,
   38.4182,       442,
   38.4427,       406,
   38.4673,       393,
   38.4918,       432,
   38.5163,       407,
   38.5409,       429,
   38.5654,       433,
   38.5899,       425,
   38.6145,       417,
    38.639,       378,
   38.6636,       480,
   38.6881,       380,
   38.7126,       411,
   38.7372,       383,
   38.7617,       424,
   38.7862,       418,
   38.8108,       414,
   38.8353,       422,
   38.8598,       433,
   38.8844,       424,
   38.9089,       429,
   38.9335,       413,
    38.958,       425,
   38.9825,       467,
   39.0071,       436,
   39.0316,       470,
   39.0561,       430,
   39.0807,       447,
   39.1052,       443,
   39.1297,       401,
   39.1543,       397,
   39.1788,       401,
   39.2034,       440,
   39.2279,       405,
   39.2524,       448,
    39.277,       418,
   39.3015,       461,
    39.326,       455,
   39.3506,       446,
   39.3751,       409,
   39.3996,       465,
   39.4242,       476,
   39.4487,       442,
   39.4732,       445,
   39.4978,       460,
   39.5223,       476,
   39.5469,       503,
   39.5714,       512,
   39.5959,       477,
   39.6205,       507,
    39.645,       474,
   39.6695,       422,
   39.6941,       466,
   39.7186,       474,
   39.7431,       475,
   39.7677,       469,
   39.7922,       453,
   39.8168,       437,
   39.8413,       482,
   39.8658,       498,
   39.8904,       467,
   39.9149,       448,
   39.9394,       449,
    39.964,       473,
   39.9885,       469,
