;RAW4.00
[RawHeader]
Date=08/18/2021
EstimatedTotalTime=633.477
FurtherDQLReading=0
HardwareIndicator=65519
MeasuredTotalTime=633.477
MeasurementFlag=1
NumberOfMeasuredRanges=1
NumberOfRanges=1
Time=09:50:40

[VarInfo]
Type=USER
Flags=0
Value=Lab Manager

[VarInfo]
Type=SAMPLEID
Flags=0
Value=

[VarInfo]
Type=COMMENT
Flags=0
Value=

[VarInfo]
Type=UTF
Flags=0
Value=

[VarInfo]
Type=CREATOR
Flags=0
Value=BrmlToV4Converter

[VarInfo]
Type=CREATOR_VERSION
Flags=0
Value=7.3.1.0

[HardwareConfiguration]
AbsorptionFactor=9999
ActivateAbsorber=0
Alpha1=0.7093
Alpha2=0.71359
AlphaAverage=0.71073
AlphaRatio=0.5
Analyzer=0
Anode=Mo
AntiScatteringSlit=18
BeamOpticsFlags=0
Beta=0.63229
BetaRelativeIntensity=0
DeactivateAbsorber=0
DetectorSlit=9999
DivergenceSlit=0.2
GoniometerControl=0
GoniometerDiameter=560
GoniometerModel=512
GoniometerStage=7
Monochromator=0
NearSampleSlit=9999
PrimarySollerSlit=2.5
SampleChanger=0
SecondSollerSlit=9999
SynchronousAxis=0
ThinFilmAttachment=9999
WaveUnit=A

[RangeHeader]
ActuallyUsedLambda=0.71073
AdditionalDetectorMask=257
DataRecordLength=4
DelayTime=0
DisplayPlaneNumber=0
EstimatedScanTime=633
ExtraParametersMask=0
GeneratorCurrent=40
GeneratorVoltage=50
Increment=0.0245361
Increment3=0
NumberOfCompletedData=1427
NumberOfCounts=1
NumberOfDetectors=0
NumberOfDrives=2
NumberOfEncoderDrives=0
NumberOfMeasuredData=1427
NumberOfVaryingParameters=0
RangeStartTime=0
RotationSpeed=60
ScanMode=1
ScanType=Locked Coupled
SimulatedMeasConditions=0
SlitChangerIn=0
SmootingWidth=0
Start=5
Steps=1427
SynchronousRotation=0
Time=76.8

[VarInfo]
Type=PSD_DISCRIM
Flags=0
Value=0.488;0.518

[PSD]
ActualTwoTheta=9999
FirstUsedChannel=0
FixedPSD=0
PSDOpening=2.94433
PSDType=5

[Drive]
DriveFlags=1
DriveName=2Theta
DriveNumber=2
DriveOffset=0
OffsetIndex=0
OscillationAmplitude=0
OscillationSpeed=0
StartPosition=5

[Drive]
DriveFlags=1
DriveName=Theta
DriveNumber=1
DriveOffset=0
OffsetIndex=0
OscillationAmplitude=0
OscillationSpeed=0
StartPosition=2.5

[Data]
     Angle,       PSD,
         5,      1327,
   5.02454,      1260,
   5.04907,      1293,
   5.07361,      1292,
   5.09814,      1219,
   5.12268,      1341,
   5.14722,      1233,
   5.17175,      1309,
   5.19629,      1267,
   5.22083,      1210,
   5.24536,      1236,
    5.2699,      1188,
   5.29443,      1291,
   5.31897,      1263,
   5.34351,      1164,
   5.36804,      1291,
   5.39258,      1200,
   5.41711,      1227,
   5.44165,      1258,
   5.46619,      1086,
   5.49072,      1379,
   5.51526,      1150,
   5.53979,      1151,
   5.56433,      1212,
   5.58887,      1083,
    5.6134,      1298,
   5.63794,      1141,
   5.66248,      1192,
   5.68701,      1155,
   5.71155,      1056,
   5.73608,      1209,
   5.76062,      1059,
   5.78516,      1143,
   5.80969,      1226,
   5.83423,      1034,
   5.85876,      1174,
    5.8833,      1090,
   5.90784,      1072,
   5.93237,      1124,
   5.95691,       978,
   5.98144,      1176,
   6.00598,      1007,
   6.03052,      1105,
   6.05505,      1067,
   6.07959,       991,
   6.10413,      1213,
   6.12866,      1005,
    6.1532,      1042,
   6.17773,      1035,
   6.20227,       997,
   6.22681,      1077,
   6.25134,      1022,
   6.27588,      1051,
   6.30041,      1100,
   6.32495,       957,
   6.34949,      1108,
   6.37402,       982,
   6.39856,       979,
    6.4231,      1033,
   6.44763,       930,
   6.47217,      1025,
    6.4967,       911,
   6.52124,       932,
   6.54578,      1033,
   6.57031,       939,
   6.59485,      1002,
   6.61938,       943,
   6.64392,       956,
   6.66846,      1046,
   6.69299,       906,
   6.71753,      1026,
   6.74206,       875,
    6.7666,       931,
   6.79114,      1001,
   6.81567,       887,
   6.84021,      1009,
   6.86475,       849,
   6.88928,       900,
   6.91382,       937,
   6.93835,       863,
   6.96289,       959,
   6.98743,       857,
   7.01196,       854,
    7.0365,       937,
   7.06103,       850,
   7.08557,       945,
   7.11011,       848,
   7.13464,       925,
   7.15918,       860,
   7.18371,       837,
   7.20825,       866,
   7.23279,       840,
   7.25732,       858,
   7.28186,       925,
    7.3064,       779,
   7.33093,       897,
   7.35547,       844,
      7.38,       900,
   7.40454,       856,
   7.42908,       812,
   7.45361,       904,
   7.47815,       832,
   7.50268,       847,
   7.52722,       911,
   7.55176,       764,
   7.57629,       884,
   7.60083,       803,
   7.62536,       851,
    7.6499,       849,
   7.67444,       785,
   7.69897,       874,
   7.72351,       778,
   7.74805,       821,
   7.77258,       842,
   7.79712,       740,
   7.82165,       790,
   7.84619,       740,
   7.87073,       795,
   7.89526,       741,
    7.9198,       651,
   7.94433,       714,
   7.96887,       642,
   7.99341,       687,
   8.01794,       663,
   8.04248,       608,
   8.06702,       696,
   8.09155,       615,
   8.11609,       679,
   8.14062,       663,
   8.16516,       543,
    8.1897,       649,
   8.21423,       602,
   8.23877,       562,
    8.2633,       661,
   8.28784,       577,
   8.31238,       686,
   8.33691,       554,
   8.36145,       638,
   8.38598,       642,
   8.41052,       547,
   8.43506,       674,
   8.45959,       582,
   8.48413,       609,
   8.50867,       654,
    8.5332,       543,
   8.55774,       672,
   8.58227,       591,
   8.60681,       649,
   8.63135,       637,
   8.65588,       526,
   8.68042,       684,
   8.70495,       600,
   8.72949,       608,
   8.75403,       629,
   8.77856,       570,
    8.8031,       668,
   8.82763,       580,
   8.85217,       658,
   8.87671,       669,
   8.90124,       603,
   8.92578,       647,
   8.95032,       609,
   8.97485,       653,
   8.99939,       662,
   9.02392,       569,
   9.04846,       712,
     9.073,       620,
   9.09753,       654,
   9.12207,       706,
    9.1466,       614,
   9.17114,       744,
   9.19568,       663,
   9.22021,       697,
   9.24475,       723,
   9.26929,       694,
   9.29382,       748,
   9.31836,       626,
   9.34289,       762,
   9.36743,       830,
   9.39197,       749,
    9.4165,       839,
   9.44104,       762,
   9.46557,       865,
   9.49011,       801,
   9.51465,       808,
   9.53918,       898,
   9.56372,       884,
   9.58825,       866,
   9.61279,       882,
   9.63733,       901,
   9.66186,      1028,
    9.6864,       977,
   9.71094,      1010,
   9.73547,      1112,
   9.76001,       955,
   9.78454,      1055,
   9.80908,      1016,
   9.83362,       985,
   9.85815,      1100,
   9.88269,      1122,
   9.90722,      1093,
   9.93176,      1081,
    9.9563,      1069,
   9.98083,      1052,
   10.0054,      1082,
   10.0299,      1123,
   10.0544,      1110,
    10.079,      1118,
   10.1035,      1182,
    10.128,      1103,
   10.1526,      1169,
   10.1771,      1121,
   10.2017,      1157,
   10.2262,      1194,
   10.2507,      1218,
   10.2753,      1259,
   10.2998,      1204,
   10.3243,      1278,
   10.3489,      1268,
   10.3734,      1235,
   10.3979,      1289,
   10.4225,      1265,
    10.447,      1210,
   10.4716,      1356,
   10.4961,      1305,
   10.5206,      1388,
   10.5452,      1374,
   10.5697,      1368,
   10.5942,      1456,
   10.6188,      1489,
   10.6433,      1582,
   10.6678,      1530,
   10.6924,      1525,
   10.7169,      1556,
   10.7415,      1473,
    10.766,      1416,
   10.7905,      1308,
   10.8151,      1431,
   10.8396,      1429,
   10.8641,      1389,
   10.8887,      1376,
   10.9132,      1417,
   10.9377,      1438,
   10.9623,      1420,
   10.9868,      1427,
   11.0113,      1471,
   11.0359,      1448,
   11.0604,      1465,
    11.085,      1517,
   11.1095,      1469,
    11.134,      1599,
   11.1586,      1426,
   11.1831,      1454,
   11.2076,      1433,
   11.2322,      1436,
   11.2567,      1536,
   11.2812,      1518,
   11.3058,      1638,
   11.3303,      1436,
   11.3549,      1578,
   11.3794,      1746,
   11.4039,      1784,
   11.4285,      1755,
    11.453,      1967,
   11.4775,      1997,
   11.5021,      1962,
   11.5266,      1888,
   11.5511,      1852,
   11.5757,      1824,
   11.6002,      1760,
   11.6248,      1666,
   11.6493,      1580,
   11.6738,      1500,
   11.6984,      1523,
   11.7229,      1515,
   11.7474,      1521,
    11.772,      1489,
   11.7965,      1516,
    11.821,      1400,
   11.8456,      1448,
   11.8701,      1486,
   11.8946,      1513,
   11.9192,      1425,
   11.9437,      1406,
   11.9683,      1437,
   11.9928,      1450,
   12.0173,      1464,
   12.0419,      1515,
   12.0664,      1476,
   12.0909,      1400,
   12.1155,      1496,
     12.14,      1446,
   12.1645,      1524,
   12.1891,      1462,
   12.2136,      1366,
   12.2382,      1553,
   12.2627,      1411,
   12.2872,      1537,
   12.3118,      1553,
   12.3363,      1613,
   12.3608,      1739,
   12.3854,      1887,
   12.4099,      2010,
   12.4344,      2059,
    12.459,      2177,
   12.4835,      2190,
   12.5081,      2102,
   12.5326,      2065,
   12.5571,      1933,
   12.5817,      1852,
   12.6062,      1673,
   12.6307,      1574,
   12.6553,      1574,
   12.6798,      1452,
   12.7043,      1351,
   12.7289,      1392,
   12.7534,      1406,
    12.778,      1417,
   12.8025,      1389,
    12.827,      1442,
   12.8516,      1352,
   12.8761,      1336,
   12.9006,      1316,
   12.9252,      1383,
   12.9497,      1365,
   12.9742,      1332,
   12.9988,      1314,
   13.0233,      1338,
   13.0478,      1307,
   13.0724,      1302,
   13.0969,      1321,
   13.1215,      1292,
    13.146,      1412,
   13.1705,      1345,
   13.1951,      1339,
   13.2196,      1314,
   13.2441,      1377,
   13.2687,      1369,
   13.2932,      1420,
   13.3177,      1350,
   13.3423,      1314,
   13.3668,      1484,
   13.3914,      1501,
   13.4159,      1651,
   13.4404,      1748,
    13.465,      2419,
   13.4895,      3246,
    13.514,      3062,
   13.5386,      2919,
   13.5631,      3058,
   13.5876,      2740,
   13.6122,      2228,
   13.6367,      1952,
   13.6613,      1663,
   13.6858,      1339,
   13.7103,      1379,
   13.7349,      1310,
   13.7594,      1281,
   13.7839,      1290,
   13.8085,      1167,
    13.833,      1263,
   13.8575,      1202,
   13.8821,      1246,
   13.9066,      1198,
   13.9311,      1257,
   13.9557,      1202,
   13.9802,      1254,
   14.0048,      1284,
   14.0293,      1154,
   14.0538,      1230,
   14.0784,      1231,
   14.1029,      1179,
   14.1274,      1148,
    14.152,      1157,
   14.1765,      1116,
    14.201,      1117,
   14.2256,      1159,
   14.2501,      1181,
   14.2747,      1140,
   14.2992,      1140,
   14.3237,      1136,
   14.3483,      1124,
   14.3728,      1133,
   14.3973,      1146,
   14.4219,      1225,
   14.4464,      1125,
   14.4709,      1253,
   14.4955,      1183,
     14.52,      1104,
   14.5446,      1157,
   14.5691,      1153,
   14.5936,      1025,
   14.6182,      1076,
   14.6427,      1084,
   14.6672,      1103,
   14.6918,      1171,
   14.7163,      1082,
   14.7408,      1145,
   14.7654,      1144,
   14.7899,      1146,
   14.8144,      1131,
    14.839,      1142,
   14.8635,      1188,
   14.8881,      1247,
   14.9126,      1305,
   14.9371,      1343,
   14.9617,      1481,
   14.9862,      1580,
   15.0107,      1652,
   15.0353,      1595,
   15.0598,      1726,
   15.0843,      1605,
   15.1089,      1503,
   15.1334,      1500,
    15.158,      1432,
   15.1825,      1260,
    15.207,      1208,
   15.2316,      1184,
   15.2561,      1074,
   15.2806,      1140,
   15.3052,      1049,
   15.3297,      1078,
   15.3542,      1026,
   15.3788,       983,
   15.4033,       994,
   15.4279,      1009,
   15.4524,       997,
   15.4769,       972,
   15.5015,       933,
    15.526,       972,
   15.5505,       950,
   15.5751,       999,
   15.5996,       923,
   15.6241,       952,
   15.6487,       844,
   15.6732,       939,
   15.6977,       917,
   15.7223,       909,
   15.7468,       914,
   15.7714,       978,
   15.7959,       904,
   15.8204,       923,
    15.845,       925,
   15.8695,       901,
    15.894,       866,
   15.9186,       867,
   15.9431,       864,
   15.9676,       837,
   15.9922,       844,
   16.0167,       837,
   16.0413,       885,
   16.0658,       834,
   16.0903,       869,
   16.1149,       873,
   16.1394,       895,
   16.1639,       827,
   16.1885,       844,
    16.213,       865,
   16.2375,       840,
   16.2621,       813,
   16.2866,       858,
   16.3112,       850,
   16.3357,       859,
   16.3602,       848,
   16.3848,       870,
   16.4093,      1085,
   16.4338,      1062,
   16.4584,       997,
   16.4829,      1010,
   16.5074,      1041,
    16.532,      1039,
   16.5565,       952,
    16.581,       914,
   16.6056,       887,
   16.6301,       809,
   16.6547,       853,
   16.6792,       814,
   16.7037,       800,
   16.7283,       803,
   16.7528,       747,
   16.7773,       787,
   16.8019,       758,
   16.8264,       796,
   16.8509,       776,
   16.8755,       770,
      16.9,       759,
   16.9246,       783,
   16.9491,       787,
   16.9736,       735,
   16.9982,       780,
   17.0227,       780,
   17.0472,       714,
   17.0718,       732,
   17.0963,       784,
   17.1208,       762,
   17.1454,       751,
   17.1699,       708,
   17.1945,       777,
    17.219,       747,
   17.2435,       733,
   17.2681,       708,
   17.2926,       669,
   17.3171,       732,
   17.3417,       727,
   17.3662,       709,
   17.3907,       731,
   17.4153,       713,
   17.4398,       742,
   17.4643,       719,
   17.4889,       760,
   17.5134,       730,
    17.538,       785,
   17.5625,       743,
    17.587,       708,
   17.6116,       787,
   17.6361,       808,
   17.6606,       745,
   17.6852,       767,
   17.7097,       812,
   17.7342,       838,
   17.7588,       820,
   17.7833,       812,
   17.8079,       791,
   17.8324,       808,
   17.8569,       829,
   17.8815,       882,
    17.906,       950,
   17.9305,      1101,
   17.9551,      1097,
   17.9796,      1022,
   18.0041,       997,
   18.0287,      1026,
   18.0532,      1002,
   18.0778,       927,
   18.1023,       907,
   18.1268,       823,
   18.1514,       800,
   18.1759,       737,
   18.2004,       760,
    18.225,       779,
   18.2495,       694,
    18.274,       749,
   18.2986,       736,
   18.3231,       723,
   18.3476,       699,
   18.3722,       713,
   18.3967,       735,
   18.4213,       714,
   18.4458,       688,
   18.4703,       748,
   18.4949,       766,
   18.5194,       763,
   18.5439,       787,
   18.5685,       780,
    18.593,       742,
   18.6175,       728,
   18.6421,       791,
   18.6666,       718,
   18.6912,       763,
   18.7157,       728,
   18.7402,       696,
   18.7648,       716,
   18.7893,       746,
   18.8138,       714,
   18.8384,       706,
   18.8629,       698,
   18.8874,       691,
    18.912,       780,
   18.9365,       743,
   18.9611,       748,
   18.9856,       695,
   19.0101,       696,
   19.0347,       738,
   19.0592,       765,
   19.0837,       777,
   19.1083,       758,
   19.1328,       700,
   19.1573,       715,
   19.1819,       725,
   19.2064,       722,
    19.231,       719,
   19.2555,       783,
     19.28,       736,
   19.3046,       713,
   19.3291,       763,
   19.3536,       747,
   19.3782,       805,
   19.4027,       801,
   19.4272,       813,
   19.4518,       823,
   19.4763,       785,
   19.5008,       803,
   19.5254,       823,
   19.5499,       913,
   19.5745,      1018,
    19.599,       963,
   19.6235,       970,
   19.6481,       970,
   19.6726,       940,
   19.6971,       974,
   19.7217,       899,
   19.7462,       898,
   19.7707,       898,
   19.7953,       900,
   19.8198,      1003,
   19.8444,       984,
   19.8689,      1019,
   19.8934,      1086,
    19.918,      1039,
   19.9425,      1050,
    19.967,      1022,
   19.9916,      1006,
   20.0161,       969,
   20.0406,       926,
   20.0652,       895,
   20.0897,       855,
   20.1143,       804,
   20.1388,       775,
   20.1633,       744,
   20.1879,       789,
   20.2124,       704,
   20.2369,       740,
   20.2615,       747,
    20.286,       733,
   20.3105,       711,
   20.3351,       722,
   20.3596,       678,
   20.3841,       712,
   20.4087,       696,
   20.4332,       694,
   20.4578,       711,
   20.4823,       681,
   20.5068,       687,
   20.5314,       693,
   20.5559,       703,
   20.5804,       630,
    20.605,       713,
   20.6295,       670,
    20.654,       620,
   20.6786,       661,
   20.7031,       697,
   20.7277,       674,
   20.7522,       721,
   20.7767,       716,
   20.8013,       700,
   20.8258,       745,
   20.8503,       713,
   20.8749,       661,
   20.8994,       660,
   20.9239,       673,
   20.9485,       697,
    20.973,       684,
   20.9976,       676,
   21.0221,       672,
   21.0466,       641,
   21.0712,       733,
   21.0957,       699,
   21.1202,       669,
   21.1448,       684,
   21.1693,       731,
   21.1938,       733,
   21.2184,       718,
   21.2429,       693,
   21.2674,       812,
    21.292,       836,
   21.3165,       884,
   21.3411,       850,
   21.3656,       834,
   21.3901,       864,
   21.4147,       896,
   21.4392,      1055,
   21.4637,      1095,
   21.4883,      1029,
   21.5128,      1009,
   21.5373,       872,
   21.5619,       907,
   21.5864,       903,
    21.611,       884,
   21.6355,       832,
     21.66,       806,
   21.6846,       774,
   21.7091,       771,
   21.7336,       671,
   21.7582,       805,
   21.7827,       798,
   21.8072,       754,
   21.8318,       805,
   21.8563,       919,
   21.8809,      1013,
   21.9054,      1025,
   21.9299,       999,
   21.9545,       958,
    21.979,       872,
   22.0035,       920,
   22.0281,       927,
   22.0526,       882,
   22.0771,       908,
   22.1017,       840,
   22.1262,       834,
   22.1507,       808,
   22.1753,       784,
   22.1998,       771,
   22.2244,       759,
   22.2489,       762,
   22.2734,       802,
    22.298,       772,
   22.3225,       785,
    22.347,       747,
   22.3716,       728,
   22.3961,       763,
   22.4206,       728,
   22.4452,       776,
   22.4697,       805,
   22.4943,       898,
   22.5188,       869,
   22.5433,       941,
   22.5679,       947,
   22.5924,       885,
   22.6169,       927,
   22.6415,       909,
    22.666,       893,
   22.6905,       856,
   22.7151,       949,
   22.7396,       856,
   22.7642,       783,
   22.7887,       752,
   22.8132,       735,
   22.8378,       727,
   22.8623,       664,
   22.8868,       722,
   22.9114,       667,
   22.9359,       624,
   22.9604,       650,
    22.985,       686,
   23.0095,       674,
    23.034,       610,
   23.0586,       702,
   23.0831,       686,
   23.1077,       692,
   23.1322,       670,
   23.1567,       713,
   23.1813,       657,
   23.2058,       679,
   23.2303,       638,
   23.2549,       679,
   23.2794,       629,
   23.3039,       613,
   23.3285,       639,
    23.353,       648,
   23.3776,       672,
   23.4021,       670,
   23.4266,       627,
   23.4512,       651,
   23.4757,       601,
   23.5002,       641,
   23.5248,       611,
   23.5493,       667,
   23.5738,       643,
   23.5984,       678,
   23.6229,       622,
   23.6475,       648,
    23.672,       631,
   23.6965,       664,
   23.7211,       659,
   23.7456,       615,
   23.7701,       630,
   23.7947,       632,
   23.8192,       676,
   23.8437,       589,
   23.8683,       659,
   23.8928,       642,
   23.9173,       627,
   23.9419,       644,
   23.9664,       638,
    23.991,       626,
   24.0155,       658,
     24.04,       653,
   24.0646,       619,
   24.0891,       636,
   24.1136,       674,
   24.1382,       631,
   24.1627,       653,
   24.1872,       651,
   24.2118,       646,
   24.2363,       682,
   24.2609,       624,
   24.2854,       646,
   24.3099,       609,
   24.3345,       641,
    24.359,       653,
   24.3835,       651,
   24.4081,       650,
   24.4326,       630,
   24.4571,       695,
   24.4817,       709,
   24.5062,       660,
   24.5308,       638,
   24.5553,       650,
   24.5798,       667,
   24.6044,       699,
   24.6289,       650,
   24.6534,       620,
    24.678,       665,
   24.7025,       672,
    24.727,       671,
   24.7516,       628,
   24.7761,       647,
   24.8006,       689,
   24.8252,       699,
   24.8497,       696,
   24.8743,       690,
   24.8988,       725,
   24.9233,       727,
   24.9479,       757,
   24.9724,       740,
   24.9969,       777,
   25.0215,       792,
    25.046,       765,
   25.0705,       752,
   25.0951,       718,
   25.1196,       739,
   25.1442,       747,
   25.1687,       750,
   25.1932,       708,
   25.2178,       745,
   25.2423,       811,
   25.2668,       798,
   25.2914,       778,
   25.3159,       764,
   25.3404,       788,
    25.365,       735,
   25.3895,       700,
   25.4141,       749,
   25.4386,       725,
   25.4631,       685,
   25.4877,       760,
   25.5122,       768,
   25.5367,       704,
   25.5613,       690,
   25.5858,       775,
   25.6103,       802,
   25.6349,       815,
   25.6594,       784,
   25.6839,       819,
   25.7085,       793,
    25.733,       753,
   25.7576,       773,
   25.7821,       767,
   25.8066,       735,
   25.8312,       753,
   25.8557,       763,
   25.8802,       717,
   25.9048,       669,
   25.9293,       675,
   25.9538,       683,
   25.9784,       672,
   26.0029,       660,
   26.0275,       675,
    26.052,       702,
   26.0765,       667,
   26.1011,       674,
   26.1256,       662,
   26.1501,       696,
   26.1747,       655,
   26.1992,       738,
   26.2237,       630,
   26.2483,       666,
   26.2728,       685,
   26.2974,       704,
   26.3219,       678,
   26.3464,       666,
    26.371,       658,
   26.3955,       747,
     26.42,       672,
   26.4446,       634,
   26.4691,       665,
   26.4936,       654,
   26.5182,       686,
   26.5427,       699,
   26.5673,       685,
   26.5918,       685,
   26.6163,       688,
   26.6409,       654,
   26.6654,       662,
   26.6899,       680,
   26.7145,       667,
    26.739,       672,
   26.7635,       725,
   26.7881,       681,
   26.8126,       722,
   26.8371,       757,
   26.8617,       716,
   26.8862,       748,
   26.9108,       732,
   26.9353,       738,
   26.9598,       807,
   26.9844,       836,
   27.0089,       783,
   27.0334,       773,
    27.058,       825,
   27.0825,       762,
    27.107,       806,
   27.1316,       786,
   27.1561,       785,
   27.1807,       706,
   27.2052,       755,
   27.2297,       764,
   27.2543,       736,
   27.2788,       744,
   27.3033,       715,
   27.3279,       735,
   27.3524,       742,
   27.3769,       727,
   27.4015,       751,
    27.426,       731,
   27.4506,       693,
   27.4751,       670,
   27.4996,       740,
   27.5242,       702,
   27.5487,       684,
   27.5732,       701,
   27.5978,       636,
   27.6223,       703,
   27.6468,       682,
   27.6714,       651,
   27.6959,       732,
   27.7204,       679,
    27.745,       704,
   27.7695,       696,
   27.7941,       752,
   27.8186,       702,
   27.8431,       685,
   27.8677,       769,
   27.8922,       701,
   27.9167,       741,
   27.9413,       728,
   27.9658,       726,
   27.9903,       694,
   28.0149,       728,
   28.0394,       710,
    28.064,       689,
   28.0885,       658,
    28.113,       686,
   28.1376,       702,
   28.1621,       718,
   28.1866,       712,
   28.2112,       720,
   28.2357,       690,
   28.2602,       691,
   28.2848,       657,
   28.3093,       698,
   28.3339,       667,
   28.3584,       686,
   28.3829,       692,
   28.4075,       628,
    28.432,       725,
   28.4565,       690,
   28.4811,       704,
   28.5056,       717,
   28.5301,       665,
   28.5547,       730,
   28.5792,       761,
   28.6037,       826,
   28.6283,       776,
   28.6528,       726,
   28.6774,       731,
   28.7019,       709,
   28.7264,       748,
    28.751,       731,
   28.7755,       761,
      28.8,       715,
   28.8246,       750,
   28.8491,       709,
   28.8736,       767,
   28.8982,       716,
   28.9227,       705,
   28.9473,       724,
   28.9718,       726,
   28.9963,       715,
   29.0209,       712,
   29.0454,       746,
   29.0699,       741,
   29.0945,       730,
    29.119,       686,
   29.1435,       666,
   29.1681,       681,
   29.1926,       743,
   29.2172,       677,
   29.2417,       657,
   29.2662,       656,
   29.2908,       633,
   29.3153,       677,
   29.3398,       646,
   29.3644,       692,
   29.3889,       678,
   29.4134,       629,
    29.438,       640,
   29.4625,       655,
    29.487,       632,
   29.5116,       694,
   29.5361,       671,
   29.5607,       635,
   29.5852,       670,
   29.6097,       700,
   29.6343,       631,
   29.6588,       674,
   29.6833,       652,
   29.7079,       634,
   29.7324,       630,
   29.7569,       624,
   29.7815,       650,
    29.806,       613,
   29.8306,       611,
   29.8551,       645,
   29.8796,       633,
   29.9042,       643,
   29.9287,       626,
   29.9532,       666,
   29.9778,       626,
   30.0023,       684,
   30.0268,       624,
   30.0514,       680,
   30.0759,       625,
   30.1005,       679,
    30.125,       677,
   30.1495,       627,
   30.1741,       654,
   30.1986,       647,
   30.2231,       673,
   30.2477,       674,
   30.2722,       693,
   30.2967,       680,
   30.3213,       654,
   30.3458,       723,
   30.3703,       669,
   30.3949,       666,
   30.4194,       694,
    30.444,       638,
   30.4685,       620,
    30.493,       677,
   30.5176,       610,
   30.5421,       651,
   30.5666,       679,
   30.5912,       667,
   30.6157,       667,
   30.6402,       707,
   30.6648,       645,
   30.6893,       700,
   30.7139,       681,
   30.7384,       623,
   30.7629,       683,
   30.7875,       677,
    30.812,       614,
   30.8365,       650,
   30.8611,       697,
   30.8856,       657,
   30.9101,       639,
   30.9347,       664,
   30.9592,       627,
   30.9838,       617,
   31.0083,       644,
   31.0328,       672,
   31.0574,       656,
   31.0819,       607,
   31.1064,       598,
    31.131,       604,
   31.1555,       615,
     31.18,       560,
   31.2046,       610,
   31.2291,       588,
   31.2536,       600,
   31.2782,       639,
   31.3027,       647,
   31.3273,       640,
   31.3518,       681,
   31.3763,       604,
   31.4009,       576,
   31.4254,       656,
   31.4499,       644,
   31.4745,       631,
    31.499,       613,
   31.5235,       666,
   31.5481,       641,
   31.5726,       671,
   31.5972,       693,
   31.6217,       586,
   31.6462,       642,
   31.6708,       701,
   31.6953,       637,
   31.7198,       692,
   31.7444,       659,
   31.7689,       623,
   31.7934,       653,
    31.818,       664,
   31.8425,       597,
   31.8671,       700,
   31.8916,       623,
   31.9161,       701,
   31.9407,       681,
   31.9652,       652,
   31.9897,       612,
   32.0143,       647,
   32.0388,       682,
   32.0633,       613,
   32.0879,       708,
   32.1124,       637,
   32.1369,       660,
   32.1615,       626,
    32.186,       702,
   32.2106,       611,
   32.2351,       625,
   32.2596,       660,
   32.2842,       628,
   32.3087,       642,
   32.3332,       624,
   32.3578,       658,
   32.3823,       642,
   32.4068,       615,
   32.4314,       623,
   32.4559,       631,
   32.4805,       572,
    32.505,       638,
   32.5295,       615,
   32.5541,       620,
   32.5786,       589,
   32.6031,       606,
   32.6277,       589,
   32.6522,       566,
   32.6767,       602,
   32.7013,       586,
   32.7258,       649,
   32.7504,       583,
   32.7749,       572,
   32.7994,       538,
    32.824,       587,
   32.8485,       572,
    32.873,       565,
   32.8976,       568,
   32.9221,       572,
   32.9466,       553,
   32.9712,       551,
   32.9957,       592,
   33.0203,       593,
   33.0448,       582,
   33.0693,       588,
   33.0939,       624,
   33.1184,       590,
   33.1429,       593,
   33.1675,       572,
    33.192,       619,
   33.2165,       582,
   33.2411,       559,
   33.2656,       616,
   33.2901,       619,
   33.3147,       601,
   33.3392,       614,
   33.3638,       674,
   33.3883,       633,
   33.4128,       623,
   33.4374,       579,
   33.4619,       595,
   33.4864,       587,
    33.511,       624,
   33.5355,       617,
     33.56,       585,
   33.5846,       553,
   33.6091,       574,
   33.6337,       570,
   33.6582,       585,
   33.6827,       569,
   33.7073,       618,
   33.7318,       582,
   33.7563,       632,
   33.7809,       595,
   33.8054,       548,
   33.8299,       561,
   33.8545,       584,
    33.879,       571,
   33.9036,       563,
   33.9281,       578,
   33.9526,       566,
   33.9772,       536,
   34.0017,       562,
   34.0262,       552,
   34.0508,       543,
   34.0753,       541,
   34.0998,       526,
   34.1244,       577,
   34.1489,       537,
   34.1734,       602,
    34.198,       563,
   34.2225,       583,
   34.2471,       546,
   34.2716,       557,
   34.2961,       540,
   34.3207,       575,
   34.3452,       536,
   34.3697,       569,
   34.3943,       554,
   34.4188,       557,
   34.4433,       540,
   34.4679,       552,
   34.4924,       523,
    34.517,       500,
   34.5415,       559,
    34.566,       534,
   34.5906,       538,
   34.6151,       470,
   34.6396,       534,
   34.6642,       528,
   34.6887,       539,
   34.7132,       554,
   34.7378,       532,
   34.7623,       548,
   34.7869,       582,
   34.8114,       583,
   34.8359,       523,
   34.8605,       545,
    34.885,       523,
   34.9095,       561,
   34.9341,       505,
   34.9586,       563,
   34.9831,       617,
   35.0077,       556,
   35.0322,       505,
   35.0567,       578,
   35.0813,       556,
   35.1058,       595,
   35.1304,       584,
   35.1549,       564,
   35.1794,       528,
    35.204,       543,
   35.2285,       556,
    35.253,       556,
   35.2776,       561,
   35.3021,       522,
   35.3266,       542,
   35.3512,       546,
   35.3757,       551,
   35.4003,       564,
   35.4248,       515,
   35.4493,       514,
   35.4739,       482,
   35.4984,       524,
   35.5229,       512,
   35.5475,       533,
    35.572,       510,
   35.5965,       539,
   35.6211,       522,
   35.6456,       520,
   35.6702,       533,
   35.6947,       542,
   35.7192,       553,
   35.7438,       600,
   35.7683,       523,
   35.7928,       562,
   35.8174,       509,
   35.8419,       520,
   35.8664,       545,
    35.891,       615,
   35.9155,       547,
     35.94,       562,
   35.9646,       590,
   35.9891,       539,
   36.0137,       508,
   36.0382,       527,
   36.0627,       553,
   36.0873,       530,
   36.1118,       583,
   36.1363,       582,
   36.1609,       533,
   36.1854,       577,
   36.2099,       587,
   36.2345,       567,
    36.259,       480,
   36.2836,       508,
   36.3081,       512,
   36.3326,       529,
   36.3572,       526,
   36.3817,       514,
   36.4062,       502,
   36.4308,       517,
   36.4553,       540,
   36.4798,       463,
   36.5044,       483,
   36.5289,       507,
   36.5535,       503,
    36.578,       509,
   36.6025,       489,
   36.6271,       434,
   36.6516,       489,
   36.6761,       511,
   36.7007,       465,
   36.7252,       496,
   36.7497,       482,
   36.7743,       472,
   36.7988,       456,
   36.8233,       452,
   36.8479,       461,
   36.8724,       466,
    36.897,       453,
   36.9215,       484,
    36.946,       464,
   36.9706,       469,
   36.9951,       469,
   37.0196,       468,
   37.0442,       453,
   37.0687,       462,
   37.0932,       486,
   37.1178,       463,
   37.1423,       446,
   37.1669,       431,
   37.1914,       432,
   37.2159,       424,
   37.2405,       491,
    37.265,       488,
   37.2895,       480,
   37.3141,       458,
   37.3386,       472,
   37.3631,       419,
   37.3877,       469,
   37.4122,       460,
   37.4368,       456,
   37.4613,       459,
   37.4858,       458,
   37.5104,       446,
   37.5349,       431,
   37.5594,       444,
    37.584,       467,
   37.6085,       470,
    37.633,       432,
   37.6576,       417,
   37.6821,       442,
   37.7066,       456,
   37.7312,       400,
   37.7557,       382,
   37.7803,       431,
   37.8048,       431,
   37.8293,       430,
   37.8539,       423,
   37.8784,       434,
   37.9029,       402,
   37.9275,       404,
    37.952,       432,
   37.9765,       420,
   38.0011,       410,
   38.0256,       445,
   38.0502,       429,
   38.0747,       457,
   38.0992,       439,
   38.1238,       454,
   38.1483,       454,
   38.1728,       414,
   38.1974,       434,
   38.2219,       441,
   38.2464,       375,
    38.271,       387,
   38.2955,       450,
   38.3201,       405,
   38.3446,       429,
   38.3691,       408,
   38.3937,       435,
   38.4182,       443,
   38.4427,       405,
   38.4673,       469,
   38.4918,       387,
   38.5163,       396,
   38.5409,       403,
   38.5654,       391,
   38.5899,       410,
   38.6145,       417,
    38.639,       438,
   38.6636,       401,
   38.6881,       416,
   38.7126,       415,
   38.7372,       427,
   38.7617,       435,
   38.7862,       412,
   38.8108,       408,
   38.8353,       415,
   38.8598,       385,
   38.8844,       423,
   38.9089,       445,
   38.9335,       416,
    38.958,       412,
   38.9825,       421,
   39.0071,       426,
   39.0316,       418,
   39.0561,       405,
   39.0807,       430,
   39.1052,       443,
   39.1297,       416,
   39.1543,       465,
   39.1788,       416,
   39.2034,       436,
   39.2279,       391,
   39.2524,       435,
    39.277,       412,
   39.3015,       440,
    39.326,       413,
   39.3506,       432,
   39.3751,       432,
   39.3996,       461,
   39.4242,       434,
   39.4487,       426,
   39.4732,       431,
   39.4978,       451,
   39.5223,       433,
   39.5469,       459,
   39.5714,       473,
   39.5959,       473,
   39.6205,       496,
    39.645,       479,
   39.6695,       504,
   39.6941,       451,
   39.7186,       484,
   39.7431,       431,
   39.7677,       501,
   39.7922,       457,
   39.8168,       481,
   39.8413,       429,
   39.8658,       460,
   39.8904,       475,
   39.9149,       489,
   39.9394,       438,
    39.964,       447,
   39.9885,       484,
