;RAW4.00
[RawHeader]
Date=08/18/2021
EstimatedTotalTime=633.321
FurtherDQLReading=0
HardwareIndicator=65519
MeasuredTotalTime=633.321
MeasurementFlag=1
NumberOfMeasuredRanges=1
NumberOfRanges=1
Time=10:04:36

[VarInfo]
Type=USER
Flags=0
Value=Lab Manager

[VarInfo]
Type=SAMPLEID
Flags=0
Value=

[VarInfo]
Type=COMMENT
Flags=0
Value=

[VarInfo]
Type=UTF
Flags=0
Value=

[VarInfo]
Type=CREATOR
Flags=0
Value=BrmlToV4Converter

[VarInfo]
Type=CREATOR_VERSION
Flags=0
Value=7.3.1.0

[HardwareConfiguration]
AbsorptionFactor=9999
ActivateAbsorber=0
Alpha1=0.7093
Alpha2=0.71359
AlphaAverage=0.71073
AlphaRatio=0.5
Analyzer=0
Anode=Mo
AntiScatteringSlit=18
BeamOpticsFlags=0
Beta=0.63229
BetaRelativeIntensity=0
DeactivateAbsorber=0
DetectorSlit=9999
DivergenceSlit=0.2
GoniometerControl=0
GoniometerDiameter=560
GoniometerModel=512
GoniometerStage=7
Monochromator=0
NearSampleSlit=9999
PrimarySollerSlit=2.5
SampleChanger=0
SecondSollerSlit=9999
SynchronousAxis=0
ThinFilmAttachment=9999
WaveUnit=A

[RangeHeader]
ActuallyUsedLambda=0.71073
AdditionalDetectorMask=257
DataRecordLength=4
DelayTime=0
DisplayPlaneNumber=0
EstimatedScanTime=633
ExtraParametersMask=0
GeneratorCurrent=40
GeneratorVoltage=50
Increment=0.0245361
Increment3=0
NumberOfCompletedData=1427
NumberOfCounts=1
NumberOfDetectors=0
NumberOfDrives=2
NumberOfEncoderDrives=0
NumberOfMeasuredData=1427
NumberOfVaryingParameters=0
RangeStartTime=0
RotationSpeed=60
ScanMode=1
ScanType=Locked Coupled
SimulatedMeasConditions=0
SlitChangerIn=0
SmootingWidth=0
Start=5
Steps=1427
SynchronousRotation=0
Time=76.8

[VarInfo]
Type=PSD_DISCRIM
Flags=0
Value=0.488;0.518

[PSD]
ActualTwoTheta=9999
FirstUsedChannel=0
FixedPSD=0
PSDOpening=2.94433
PSDType=5

[Drive]
DriveFlags=1
DriveName=2Theta
DriveNumber=2
DriveOffset=0
OffsetIndex=0
OscillationAmplitude=0
OscillationSpeed=0
StartPosition=5

[Drive]
DriveFlags=1
DriveName=Theta
DriveNumber=1
DriveOffset=0
OffsetIndex=0
OscillationAmplitude=0
OscillationSpeed=0
StartPosition=2.5

[Data]
     Angle,       PSD,
         5,      1276,
   5.02454,      1242,
   5.04907,      1158,
   5.07361,      1273,
   5.09814,      1260,
   5.12268,      1167,
   5.14722,      1337,
   5.17175,      1241,
   5.19629,      1271,
   5.22083,      1277,
   5.24536,      1204,
    5.2699,      1295,
   5.29443,      1223,
   5.31897,      1255,
   5.34351,      1197,
   5.36804,      1167,
   5.39258,      1252,
   5.41711,      1188,
   5.44165,      1216,
   5.46619,      1165,
   5.49072,      1130,
   5.51526,      1299,
   5.53979,      1138,
   5.56433,      1227,
   5.58887,      1251,
    5.6134,      1078,
   5.63794,      1214,
   5.66248,      1100,
   5.68701,      1185,
   5.71155,      1229,
   5.73608,      1121,
   5.76062,      1170,
   5.78516,      1031,
   5.80969,      1123,
   5.83423,      1090,
   5.85876,      1093,
    5.8833,      1138,
   5.90784,      1078,
   5.93237,      1132,
   5.95691,      1056,
   5.98144,      1039,
   6.00598,      1094,
   6.03052,      1041,
   6.05505,      1080,
   6.07959,      1099,
   6.10413,      1052,
   6.12866,      1062,
    6.1532,       972,
   6.17773,      1074,
   6.20227,      1089,
   6.22681,      1041,
   6.25134,      1115,
   6.27588,      1020,
   6.30041,      1008,
   6.32495,      1078,
   6.34949,       946,
   6.37402,      1007,
   6.39856,       979,
    6.4231,      1053,
   6.44763,      1010,
   6.47217,       905,
    6.4967,      1058,
   6.52124,       914,
   6.54578,      1033,
   6.57031,       982,
   6.59485,       973,
   6.61938,       990,
   6.64392,       970,
   6.66846,      1014,
   6.69299,       986,
   6.71753,       900,
   6.74206,      1023,
    6.7666,       876,
   6.79114,       902,
   6.81567,      1008,
   6.84021,       865,
   6.86475,       923,
   6.88928,       848,
   6.91382,       934,
   6.93835,       962,
   6.96289,       863,
   6.98743,       982,
   7.01196,       863,
    7.0365,       925,
   7.06103,       979,
   7.08557,       856,
   7.11011,       949,
   7.13464,       869,
   7.15918,       897,
   7.18371,       908,
   7.20825,       830,
   7.23279,       882,
   7.25732,       839,
   7.28186,       861,
    7.3064,       924,
   7.33093,       845,
   7.35547,       906,
      7.38,       773,
   7.40454,       899,
   7.42908,       915,
   7.45361,       881,
   7.47815,       855,
   7.50268,       795,
   7.52722,       843,
   7.55176,       886,
   7.57629,       802,
   7.60083,       828,
   7.62536,       787,
    7.6499,       868,
   7.67444,       847,
   7.69897,       823,
   7.72351,       913,
   7.74805,       781,
   7.77258,       833,
   7.79712,       848,
   7.82165,       714,
   7.84619,       800,
   7.87073,       699,
   7.89526,       775,
    7.9198,       728,
   7.94433,       637,
   7.96887,       707,
   7.99341,       590,
   8.01794,       655,
   8.04248,       647,
   8.06702,       535,
   8.09155,       645,
   8.11609,       609,
   8.14062,       624,
   8.16516,       659,
    8.1897,       522,
   8.21423,       651,
   8.23877,       527,
    8.2633,       580,
   8.28784,       633,
   8.31238,       553,
   8.33691,       600,
   8.36145,       560,
   8.38598,       628,
   8.41052,       619,
   8.43506,       554,
   8.45959,       641,
   8.48413,       497,
   8.50867,       582,
    8.5332,       626,
   8.55774,       524,
   8.58227,       662,
   8.60681,       601,
   8.63135,       584,
   8.65588,       596,
   8.68042,       529,
   8.70495,       646,
   8.72949,       589,
   8.75403,       597,
   8.77856,       624,
    8.8031,       577,
   8.82763,       638,
   8.85217,       543,
   8.87671,       598,
   8.90124,       670,
   8.92578,       556,
   8.95032,       594,
   8.97485,       601,
   8.99939,       588,
   9.02392,       623,
   9.04846,       573,
     9.073,       647,
   9.09753,       533,
   9.12207,       578,
    9.1466,       587,
   9.17114,       549,
   9.19568,       643,
   9.22021,       566,
   9.24475,       585,
   9.26929,       643,
   9.29382,       503,
   9.31836,       664,
   9.34289,       543,
   9.36743,       653,
   9.39197,       619,
    9.4165,       573,
   9.44104,       655,
   9.46557,       573,
   9.49011,       636,
   9.51465,       644,
   9.53918,       610,
   9.56372,       706,
   9.58825,       609,
   9.61279,       730,
   9.63733,       797,
   9.66186,       700,
    9.6864,       814,
   9.71094,       684,
   9.73547,       737,
   9.76001,       790,
   9.78454,       678,
   9.80908,       742,
   9.83362,       697,
   9.85815,       760,
   9.88269,       752,
   9.90722,       697,
   9.93176,       858,
    9.9563,       735,
   9.98083,       770,
   10.0054,       836,
   10.0299,       762,
   10.0544,       841,
    10.079,       743,
   10.1035,       848,
    10.128,       844,
   10.1526,       887,
   10.1771,       898,
   10.2017,       935,
   10.2262,       944,
   10.2507,       921,
   10.2753,       836,
   10.2998,       989,
   10.3243,       927,
   10.3489,       960,
   10.3734,       988,
   10.3979,       997,
   10.4225,      1041,
    10.447,       977,
   10.4716,      1030,
   10.4961,      1047,
   10.5206,      1073,
   10.5452,      1221,
   10.5697,      1242,
   10.5942,      1272,
   10.6188,      1310,
   10.6433,      1247,
   10.6678,      1282,
   10.6924,      1198,
   10.7169,      1252,
   10.7415,      1154,
    10.766,      1156,
   10.7905,      1140,
   10.8151,      1160,
   10.8396,      1212,
   10.8641,      1202,
   10.8887,      1258,
   10.9132,      1275,
   10.9377,      1232,
   10.9623,      1278,
   10.9868,      1275,
   11.0113,      1236,
   11.0359,      1341,
   11.0604,      1287,
    11.085,      1284,
   11.1095,      1323,
    11.134,      1288,
   11.1586,      1283,
   11.1831,      1305,
   11.2076,      1314,
   11.2322,      1445,
   11.2567,      1416,
   11.2812,      1478,
   11.3058,      1519,
   11.3303,      1599,
   11.3549,      1756,
   11.3794,      1877,
   11.4039,      2065,
   11.4285,      2108,
    11.453,      2062,
   11.4775,      2033,
   11.5021,      1879,
   11.5266,      1713,
   11.5511,      1691,
   11.5757,      1540,
   11.6002,      1512,
   11.6248,      1454,
   11.6493,      1496,
   11.6738,      1482,
   11.6984,      1471,
   11.7229,      1478,
   11.7474,      1429,
    11.772,      1461,
   11.7965,      1362,
    11.821,      1462,
   11.8456,      1456,
   11.8701,      1467,
   11.8946,      1544,
   11.9192,      1427,
   11.9437,      1487,
   11.9683,      1467,
   11.9928,      1500,
   12.0173,      1460,
   12.0419,      1471,
   12.0664,      1449,
   12.0909,      1426,
   12.1155,      1484,
     12.14,      1476,
   12.1645,      1499,
   12.1891,      1486,
   12.2136,      1639,
   12.2382,      1550,
   12.2627,      1661,
   12.2872,      1780,
   12.3118,      1908,
   12.3363,      2082,
   12.3608,      2272,
   12.3854,      2428,
   12.4099,      2393,
   12.4344,      2537,
    12.459,      2439,
   12.4835,      2192,
   12.5081,      1994,
   12.5326,      1977,
   12.5571,      1684,
   12.5817,      1664,
   12.6062,      1490,
   12.6307,      1504,
   12.6553,      1462,
   12.6798,      1408,
   12.7043,      1388,
   12.7289,      1372,
   12.7534,      1376,
    12.778,      1392,
   12.8025,      1344,
    12.827,      1354,
   12.8516,      1400,
   12.8761,      1365,
   12.9006,      1359,
   12.9252,      1432,
   12.9497,      1338,
   12.9742,      1349,
   12.9988,      1336,
   13.0233,      1336,
   13.0478,      1350,
   13.0724,      1336,
   13.0969,      1312,
   13.1215,      1351,
    13.146,      1388,
   13.1705,      1341,
   13.1951,      1329,
   13.2196,      1440,
   13.2441,      1265,
   13.2687,      1365,
   13.2932,      1414,
   13.3177,      1468,
   13.3423,      1616,
   13.3668,      1743,
   13.3914,      1920,
   13.4159,      2744,
   13.4404,      3446,
    13.465,      3419,
   13.4895,      3181,
    13.514,      3115,
   13.5386,      2669,
   13.5631,      2138,
   13.5876,      1730,
   13.6122,      1464,
   13.6367,      1329,
   13.6613,      1298,
   13.6858,      1298,
   13.7103,      1331,
   13.7349,      1227,
   13.7594,      1231,
   13.7839,      1204,
   13.8085,      1243,
    13.833,      1282,
   13.8575,      1221,
   13.8821,      1211,
   13.9066,      1233,
   13.9311,      1252,
   13.9557,      1211,
   13.9802,      1190,
   14.0048,      1159,
   14.0293,      1179,
   14.0538,      1220,
   14.0784,      1122,
   14.1029,      1144,
   14.1274,      1174,
    14.152,      1165,
   14.1765,      1137,
    14.201,      1088,
   14.2256,      1140,
   14.2501,      1127,
   14.2747,      1174,
   14.2992,      1115,
   14.3237,      1170,
   14.3483,      1172,
   14.3728,      1197,
   14.3973,      1184,
   14.4219,      1165,
   14.4464,      1172,
   14.4709,      1116,
   14.4955,      1108,
     14.52,      1162,
   14.5446,      1197,
   14.5691,      1167,
   14.5936,      1155,
   14.6182,      1174,
   14.6427,      1093,
   14.6672,      1187,
   14.6918,      1067,
   14.7163,      1148,
   14.7408,      1140,
   14.7654,      1205,
   14.7899,      1198,
   14.8144,      1286,
    14.839,      1341,
   14.8635,      1396,
   14.8881,      1514,
   14.9126,      1644,
   14.9371,      1845,
   14.9617,      1851,
   14.9862,      1888,
   15.0107,      1765,
   15.0353,      1753,
   15.0598,      1669,
   15.0843,      1507,
   15.1089,      1413,
   15.1334,      1382,
    15.158,      1265,
   15.1825,      1187,
    15.207,      1150,
   15.2316,      1155,
   15.2561,      1058,
   15.2806,      1069,
   15.3052,      1053,
   15.3297,      1122,
   15.3542,       934,
   15.3788,       973,
   15.4033,       987,
   15.4279,       998,
   15.4524,      1045,
   15.4769,       959,
   15.5015,       960,
    15.526,      1000,
   15.5505,       991,
   15.5751,       946,
   15.5996,       941,
   15.6241,       945,
   15.6487,       986,
   15.6732,       938,
   15.6977,       895,
   15.7223,       933,
   15.7468,       904,
   15.7714,       953,
   15.7959,       930,
   15.8204,       913,
    15.845,       861,
   15.8695,       886,
    15.894,       903,
   15.9186,       906,
   15.9431,       913,
   15.9676,       903,
   15.9922,       884,
   16.0167,       848,
   16.0413,       879,
   16.0658,       910,
   16.0903,       876,
   16.1149,       838,
   16.1394,       840,
   16.1639,       943,
   16.1885,       898,
    16.213,       863,
   16.2375,       850,
   16.2621,       876,
   16.2866,       862,
   16.3112,       908,
   16.3357,       927,
   16.3602,      1009,
   16.3848,      1117,
   16.4093,      1081,
   16.4338,      1022,
   16.4584,      1038,
   16.4829,       995,
   16.5074,       955,
    16.532,       892,
   16.5565,       816,
    16.581,       811,
   16.6056,       797,
   16.6301,       796,
   16.6547,       834,
   16.6792,       810,
   16.7037,       806,
   16.7283,       806,
   16.7528,       773,
   16.7773,       833,
   16.8019,       818,
   16.8264,       777,
   16.8509,       770,
   16.8755,       780,
      16.9,       766,
   16.9246,       795,
   16.9491,       744,
   16.9736,       790,
   16.9982,       744,
   17.0227,       807,
   17.0472,       744,
   17.0718,       754,
   17.0963,       745,
   17.1208,       757,
   17.1454,       761,
   17.1699,       768,
   17.1945,       743,
    17.219,       768,
   17.2435,       805,
   17.2681,       711,
   17.2926,       755,
   17.3171,       750,
   17.3417,       748,
   17.3662,       750,
   17.3907,       771,
   17.4153,       783,
   17.4398,       747,
   17.4643,       768,
   17.4889,       724,
   17.5134,       749,
    17.538,       773,
   17.5625,       755,
    17.587,       817,
   17.6116,       811,
   17.6361,       796,
   17.6606,       742,
   17.6852,       834,
   17.7097,       897,
   17.7342,       833,
   17.7588,       880,
   17.7833,       833,
   17.8079,       913,
   17.8324,       873,
   17.8569,       997,
   17.8815,      1140,
    17.906,      1075,
   17.9305,      1073,
   17.9551,       999,
   17.9796,      1025,
   18.0041,       957,
   18.0287,       874,
   18.0532,       930,
   18.0778,       801,
   18.1023,       788,
   18.1268,       743,
   18.1514,       738,
   18.1759,       757,
   18.2004,       745,
    18.225,       726,
   18.2495,       720,
    18.274,       748,
   18.2986,       788,
   18.3231,       688,
   18.3476,       781,
   18.3722,       728,
   18.3967,       748,
   18.4213,       772,
   18.4458,       762,
   18.4703,       749,
   18.4949,       773,
   18.5194,       712,
   18.5439,       750,
   18.5685,       751,
    18.593,       740,
   18.6175,       733,
   18.6421,       736,
   18.6666,       744,
   18.6912,       734,
   18.7157,       762,
   18.7402,       745,
   18.7648,       750,
   18.7893,       782,
   18.8138,       734,
   18.8384,       700,
   18.8629,       723,
   18.8874,       767,
    18.912,       770,
   18.9365,       749,
   18.9611,       758,
   18.9856,       743,
   19.0101,       786,
   19.0347,       732,
   19.0592,       717,
   19.0837,       777,
   19.1083,       741,
   19.1328,       766,
   19.1573,       752,
   19.1819,       754,
   19.2064,       787,
    19.231,       742,
   19.2555,       794,
     19.28,       774,
   19.3046,       793,
   19.3291,       841,
   19.3536,       877,
   19.3782,       815,
   19.4027,       802,
   19.4272,       831,
   19.4518,       854,
   19.4763,       924,
   19.5008,       949,
   19.5254,      1063,
   19.5499,      1059,
   19.5745,       921,
    19.599,       944,
   19.6235,       941,
   19.6481,       996,
   19.6726,       967,
   19.6971,       954,
   19.7217,       962,
   19.7462,       954,
   19.7707,      1096,
   19.7953,      1038,
   19.8198,      1181,
   19.8444,      1097,
   19.8689,      1142,
   19.8934,      1110,
    19.918,      1051,
   19.9425,       984,
    19.967,       986,
   19.9916,       875,
   20.0161,       892,
   20.0406,       857,
   20.0652,       818,
   20.0897,       765,
   20.1143,       780,
   20.1388,       773,
   20.1633,       764,
   20.1879,       760,
   20.2124,       706,
   20.2369,       723,
   20.2615,       672,
    20.286,       703,
   20.3105,       697,
   20.3351,       641,
   20.3596,       712,
   20.3841,       674,
   20.4087,       685,
   20.4332,       723,
   20.4578,       668,
   20.4823,       686,
   20.5068,       729,
   20.5314,       703,
   20.5559,       687,
   20.5804,       742,
    20.605,       687,
   20.6295,       704,
    20.654,       661,
   20.6786,       716,
   20.7031,       667,
   20.7277,       708,
   20.7522,       752,
   20.7767,       696,
   20.8013,       683,
   20.8258,       683,
   20.8503,       673,
   20.8749,       733,
   20.8994,       669,
   20.9239,       739,
   20.9485,       713,
    20.973,       740,
   20.9976,       723,
   21.0221,       691,
   21.0466,       712,
   21.0712,       717,
   21.0957,       663,
   21.1202,       703,
   21.1448,       741,
   21.1693,       765,
   21.1938,       782,
   21.2184,       796,
   21.2429,       895,
   21.2674,       916,
    21.292,       875,
   21.3165,       755,
   21.3411,       870,
   21.3656,       946,
   21.3901,      1077,
   21.4147,      1094,
   21.4392,       967,
   21.4637,       865,
   21.4883,       828,
   21.5128,       883,
   21.5373,       874,
   21.5619,       833,
   21.5864,       817,
    21.611,       752,
   21.6355,       775,
     21.66,       759,
   21.6846,       781,
   21.7091,       740,
   21.7336,       803,
   21.7582,       774,
   21.7827,       889,
   21.8072,      1022,
   21.8318,      1056,
   21.8563,      1063,
   21.8809,       960,
   21.9054,       914,
   21.9299,       870,
   21.9545,      1003,
    21.979,       925,
   22.0035,       863,
   22.0281,       891,
   22.0526,       817,
   22.0771,       818,
   22.1017,       809,
   22.1262,       772,
   22.1507,       802,
   22.1753,       780,
   22.1998,       781,
   22.2244,       789,
   22.2489,       795,
   22.2734,       798,
    22.298,       780,
   22.3225,       836,
    22.347,       802,
   22.3716,       826,
   22.3961,       840,
   22.4206,       837,
   22.4452,       909,
   22.4697,       986,
   22.4943,      1011,
   22.5188,       986,
   22.5433,       995,
   22.5679,       945,
   22.5924,       959,
   22.6169,       861,
   22.6415,       906,
    22.666,       843,
   22.6905,       834,
   22.7151,       816,
   22.7396,       738,
   22.7642,       704,
   22.7887,       752,
   22.8132,       678,
   22.8378,       683,
   22.8623,       743,
   22.8868,       702,
   22.9114,       706,
   22.9359,       643,
   22.9604,       675,
    22.985,       716,
   23.0095,       682,
    23.034,       697,
   23.0586,       693,
   23.0831,       650,
   23.1077,       686,
   23.1322,       692,
   23.1567,       672,
   23.1813,       663,
   23.2058,       702,
   23.2303,       664,
   23.2549,       656,
   23.2794,       666,
   23.3039,       671,
   23.3285,       637,
    23.353,       663,
   23.3776,       676,
   23.4021,       676,
   23.4266,       686,
   23.4512,       684,
   23.4757,       680,
   23.5002,       655,
   23.5248,       686,
   23.5493,       680,
   23.5738,       669,
   23.5984,       660,
   23.6229,       677,
   23.6475,       627,
    23.672,       648,
   23.6965,       623,
   23.7211,       674,
   23.7456,       638,
   23.7701,       651,
   23.7947,       655,
   23.8192,       655,
   23.8437,       664,
   23.8683,       640,
   23.8928,       619,
   23.9173,       645,
   23.9419,       686,
   23.9664,       691,
    23.991,       703,
   24.0155,       665,
     24.04,       685,
   24.0646,       678,
   24.0891,       671,
   24.1136,       664,
   24.1382,       669,
   24.1627,       658,
   24.1872,       687,
   24.2118,       700,
   24.2363,       683,
   24.2609,       652,
   24.2854,       646,
   24.3099,       654,
   24.3345,       682,
    24.359,       711,
   24.3835,       614,
   24.4081,       702,
   24.4326,       651,
   24.4571,       649,
   24.4817,       730,
   24.5062,       710,
   24.5308,       675,
   24.5553,       683,
   24.5798,       669,
   24.6044,       676,
   24.6289,       666,
   24.6534,       725,
    24.678,       679,
   24.7025,       697,
    24.727,       690,
   24.7516,       683,
   24.7761,       742,
   24.8006,       724,
   24.8252,       756,
   24.8497,       758,
   24.8743,       776,
   24.8988,       807,
   24.9233,       781,
   24.9479,       777,
   24.9724,       820,
   24.9969,       762,
   25.0215,       730,
    25.046,       746,
   25.0705,       810,
   25.0951,       784,
   25.1196,       760,
   25.1442,       774,
   25.1687,       748,
   25.1932,       702,
   25.2178,       776,
   25.2423,       712,
   25.2668,       767,
   25.2914,       730,
   25.3159,       689,
   25.3404,       703,
    25.365,       686,
   25.3895,       746,
   25.4141,       740,
   25.4386,       778,
   25.4631,       723,
   25.4877,       714,
   25.5122,       743,
   25.5367,       794,
   25.5613,       864,
   25.5858,       830,
   25.6103,       831,
   25.6349,       753,
   25.6594,       722,
   25.6839,       715,
   25.7085,       755,
    25.733,       702,
   25.7576,       800,
   25.7821,       710,
   25.8066,       711,
   25.8312,       702,
   25.8557,       683,
   25.8802,       695,
   25.9048,       695,
   25.9293,       714,
   25.9538,       653,
   25.9784,       684,
   26.0029,       743,
   26.0275,       679,
    26.052,       671,
   26.0765,       664,
   26.1011,       676,
   26.1256,       742,
   26.1501,       701,
   26.1747,       671,
   26.1992,       680,
   26.2237,       679,
   26.2483,       693,
   26.2728,       696,
   26.2974,       683,
   26.3219,       641,
   26.3464,       708,
    26.371,       664,
   26.3955,       686,
     26.42,       694,
   26.4446,       697,
   26.4691,       711,
   26.4936,       721,
   26.5182,       642,
   26.5427,       739,
   26.5673,       704,
   26.5918,       689,
   26.6163,       724,
   26.6409,       692,
   26.6654,       695,
   26.6899,       721,
   26.7145,       703,
    26.739,       755,
   26.7635,       765,
   26.7881,       750,
   26.8126,       764,
   26.8371,       770,
   26.8617,       755,
   26.8862,       772,
   26.9108,       814,
   26.9353,       791,
   26.9598,       781,
   26.9844,       750,
   27.0089,       732,
   27.0334,       761,
    27.058,       769,
   27.0825,       832,
    27.107,       790,
   27.1316,       778,
   27.1561,       752,
   27.1807,       735,
   27.2052,       774,
   27.2297,       773,
   27.2543,       753,
   27.2788,       766,
   27.3033,       717,
   27.3279,       744,
   27.3524,       724,
   27.3769,       700,
   27.4015,       692,
    27.426,       686,
   27.4506,       727,
   27.4751,       697,
   27.4996,       700,
   27.5242,       675,
   27.5487,       731,
   27.5732,       646,
   27.5978,       736,
   27.6223,       683,
   27.6468,       662,
   27.6714,       701,
   27.6959,       718,
   27.7204,       694,
    27.745,       728,
   27.7695,       717,
   27.7941,       700,
   27.8186,       733,
   27.8431,       753,
   27.8677,       746,
   27.8922,       744,
   27.9167,       782,
   27.9413,       715,
   27.9658,       735,
   27.9903,       773,
   28.0149,       707,
   28.0394,       747,
    28.064,       708,
   28.0885,       651,
    28.113,       710,
   28.1376,       700,
   28.1621,       704,
   28.1866,       678,
   28.2112,       700,
   28.2357,       662,
   28.2602,       714,
   28.2848,       724,
   28.3093,       688,
   28.3339,       718,
   28.3584,       665,
   28.3829,       758,
   28.4075,       706,
    28.432,       731,
   28.4565,       698,
   28.4811,       744,
   28.5056,       762,
   28.5301,       789,
   28.5547,       770,
   28.5792,       775,
   28.6037,       775,
   28.6283,       722,
   28.6528,       726,
   28.6774,       707,
   28.7019,       727,
   28.7264,       692,
    28.751,       691,
   28.7755,       738,
      28.8,       751,
   28.8246,       717,
   28.8491,       739,
   28.8736,       740,
   28.8982,       735,
   28.9227,       765,
   28.9473,       726,
   28.9718,       720,
   28.9963,       707,
   29.0209,       710,
   29.0454,       680,
   29.0699,       709,
   29.0945,       646,
    29.119,       712,
   29.1435,       711,
   29.1681,       685,
   29.1926,       699,
   29.2172,       669,
   29.2417,       656,
   29.2662,       688,
   29.2908,       703,
   29.3153,       681,
   29.3398,       668,
   29.3644,       650,
   29.3889,       677,
   29.4134,       675,
    29.438,       724,
   29.4625,       710,
    29.487,       745,
   29.5116,       646,
   29.5361,       693,
   29.5607,       666,
   29.5852,       650,
   29.6097,       643,
   29.6343,       667,
   29.6588,       667,
   29.6833,       629,
   29.7079,       682,
   29.7324,       671,
   29.7569,       677,
   29.7815,       678,
    29.806,       685,
   29.8306,       722,
   29.8551,       669,
   29.8796,       691,
   29.9042,       704,
   29.9287,       658,
   29.9532,       630,
   29.9778,       692,
   30.0023,       646,
   30.0268,       673,
   30.0514,       698,
   30.0759,       713,
   30.1005,       708,
    30.125,       670,
   30.1495,       705,
   30.1741,       649,
   30.1986,       715,
   30.2231,       710,
   30.2477,       699,
   30.2722,       663,
   30.2967,       685,
   30.3213,       672,
   30.3458,       665,
   30.3703,       745,
   30.3949,       705,
   30.4194,       683,
    30.444,       691,
   30.4685,       683,
    30.493,       704,
   30.5176,       631,
   30.5421,       676,
   30.5666,       660,
   30.5912,       648,
   30.6157,       704,
   30.6402,       681,
   30.6648,       651,
   30.6893,       675,
   30.7139,       668,
   30.7384,       643,
   30.7629,       671,
   30.7875,       662,
    30.812,       693,
   30.8365,       701,
   30.8611,       684,
   30.8856,       643,
   30.9101,       669,
   30.9347,       662,
   30.9592,       670,
   30.9838,       696,
   31.0083,       649,
   31.0328,       665,
   31.0574,       713,
   31.0819,       682,
   31.1064,       617,
    31.131,       615,
   31.1555,       657,
     31.18,       646,
   31.2046,       618,
   31.2291,       665,
   31.2536,       609,
   31.2782,       642,
   31.3027,       617,
   31.3273,       681,
   31.3518,       658,
   31.3763,       604,
   31.4009,       682,
   31.4254,       716,
   31.4499,       702,
   31.4745,       671,
    31.499,       702,
   31.5235,       665,
   31.5481,       663,
   31.5726,       644,
   31.5972,       641,
   31.6217,       651,
   31.6462,       689,
   31.6708,       670,
   31.6953,       706,
   31.7198,       684,
   31.7444,       617,
   31.7689,       666,
   31.7934,       712,
    31.818,       682,
   31.8425,       682,
   31.8671,       665,
   31.8916,       689,
   31.9161,       660,
   31.9407,       729,
   31.9652,       704,
   31.9897,       713,
   32.0143,       710,
   32.0388,       656,
   32.0633,       680,
   32.0879,       677,
   32.1124,       730,
   32.1369,       637,
   32.1615,       677,
    32.186,       670,
   32.2106,       655,
   32.2351,       657,
   32.2596,       637,
   32.2842,       652,
   32.3087,       656,
   32.3332,       592,
   32.3578,       676,
   32.3823,       634,
   32.4068,       619,
   32.4314,       635,
   32.4559,       631,
   32.4805,       582,
    32.505,       570,
   32.5295,       595,
   32.5541,       638,
   32.5786,       606,
   32.6031,       649,
   32.6277,       662,
   32.6522,       591,
   32.6767,       630,
   32.7013,       618,
   32.7258,       614,
   32.7504,       607,
   32.7749,       579,
   32.7994,       574,
    32.824,       587,
   32.8485,       648,
    32.873,       620,
   32.8976,       641,
   32.9221,       586,
   32.9466,       604,
   32.9712,       621,
   32.9957,       588,
   33.0203,       617,
   33.0448,       621,
   33.0693,       553,
   33.0939,       615,
   33.1184,       624,
   33.1429,       631,
   33.1675,       615,
    33.192,       613,
   33.2165,       612,
   33.2411,       640,
   33.2656,       674,
   33.2901,       607,
   33.3147,       579,
   33.3392,       593,
   33.3638,       667,
   33.3883,       660,
   33.4128,       591,
   33.4374,       637,
   33.4619,       666,
   33.4864,       610,
    33.511,       610,
   33.5355,       610,
     33.56,       609,
   33.5846,       606,
   33.6091,       590,
   33.6337,       600,
   33.6582,       606,
   33.6827,       640,
   33.7073,       597,
   33.7318,       570,
   33.7563,       588,
   33.7809,       567,
   33.8054,       589,
   33.8299,       601,
   33.8545,       560,
    33.879,       554,
   33.9036,       585,
   33.9281,       528,
   33.9526,       560,
   33.9772,       600,
   34.0017,       595,
   34.0262,       595,
   34.0508,       559,
   34.0753,       586,
   34.0998,       610,
   34.1244,       576,
   34.1489,       565,
   34.1734,       579,
    34.198,       497,
   34.2225,       553,
   34.2471,       519,
   34.2716,       576,
   34.2961,       595,
   34.3207,       549,
   34.3452,       534,
   34.3697,       545,
   34.3943,       544,
   34.4188,       594,
   34.4433,       566,
   34.4679,       527,
   34.4924,       587,
    34.517,       569,
   34.5415,       548,
    34.566,       544,
   34.5906,       576,
   34.6151,       567,
   34.6396,       584,
   34.6642,       564,
   34.6887,       559,
   34.7132,       587,
   34.7378,       617,
   34.7623,       590,
   34.7869,       594,
   34.8114,       601,
   34.8359,       552,
   34.8605,       600,
    34.885,       552,
   34.9095,       552,
   34.9341,       604,
   34.9586,       574,
   34.9831,       605,
   35.0077,       602,
   35.0322,       647,
   35.0567,       632,
   35.0813,       577,
   35.1058,       557,
   35.1304,       585,
   35.1549,       562,
   35.1794,       614,
    35.204,       537,
   35.2285,       575,
    35.253,       580,
   35.2776,       555,
   35.3021,       575,
   35.3266,       540,
   35.3512,       583,
   35.3757,       512,
   35.4003,       521,
   35.4248,       541,
   35.4493,       513,
   35.4739,       557,
   35.4984,       535,
   35.5229,       589,
   35.5475,       561,
    35.572,       554,
   35.5965,       550,
   35.6211,       573,
   35.6456,       571,
   35.6702,       551,
   35.6947,       528,
   35.7192,       566,
   35.7438,       526,
   35.7683,       568,
   35.7928,       585,
   35.8174,       592,
   35.8419,       556,
   35.8664,       574,
    35.891,       567,
   35.9155,       589,
     35.94,       558,
   35.9646,       567,
   35.9891,       528,
   36.0137,       570,
   36.0382,       594,
   36.0627,       601,
   36.0873,       550,
   36.1118,       561,
   36.1363,       580,
   36.1609,       534,
   36.1854,       523,
   36.2099,       506,
   36.2345,       544,
    36.259,       556,
   36.2836,       520,
   36.3081,       540,
   36.3326,       544,
   36.3572,       511,
   36.3817,       523,
   36.4062,       560,
   36.4308,       488,
   36.4553,       521,
   36.4798,       520,
   36.5044,       523,
   36.5289,       528,
   36.5535,       535,
    36.578,       474,
   36.6025,       490,
   36.6271,       510,
   36.6516,       504,
   36.6761,       498,
   36.7007,       515,
   36.7252,       473,
   36.7497,       495,
   36.7743,       522,
   36.7988,       493,
   36.8233,       519,
   36.8479,       490,
   36.8724,       487,
    36.897,       501,
   36.9215,       482,
    36.946,       490,
   36.9706,       454,
   36.9951,       507,
   37.0196,       480,
   37.0442,       455,
   37.0687,       469,
   37.0932,       436,
   37.1178,       477,
   37.1423,       473,
   37.1669,       474,
   37.1914,       468,
   37.2159,       457,
   37.2405,       482,
    37.265,       468,
   37.2895,       497,
   37.3141,       497,
   37.3386,       463,
   37.3631,       505,
   37.3877,       423,
   37.4122,       521,
   37.4368,       453,
   37.4613,       496,
   37.4858,       476,
   37.5104,       452,
   37.5349,       470,
   37.5594,       500,
    37.584,       471,
   37.6085,       463,
    37.633,       481,
   37.6576,       451,
   37.6821,       471,
   37.7066,       457,
   37.7312,       493,
   37.7557,       436,
   37.7803,       471,
   37.8048,       478,
   37.8293,       447,
   37.8539,       484,
   37.8784,       421,
   37.9029,       422,
   37.9275,       459,
    37.952,       423,
   37.9765,       459,
   38.0011,       450,
   38.0256,       469,
   38.0502,       461,
   38.0747,       460,
   38.0992,       462,
   38.1238,       438,
   38.1483,       457,
   38.1728,       408,
   38.1974,       423,
   38.2219,       426,
   38.2464,       399,
    38.271,       423,
   38.2955,       400,
   38.3201,       437,
   38.3446,       442,
   38.3691,       449,
   38.3937,       433,
   38.4182,       409,
   38.4427,       435,
   38.4673,       446,
   38.4918,       438,
   38.5163,       438,
   38.5409,       436,
   38.5654,       444,
   38.5899,       426,
   38.6145,       428,
    38.639,       385,
   38.6636,       427,
   38.6881,       441,
   38.7126,       409,
   38.7372,       394,
   38.7617,       440,
   38.7862,       409,
   38.8108,       424,
   38.8353,       439,
   38.8598,       473,
   38.8844,       443,
   38.9089,       431,
   38.9335,       453,
    38.958,       437,
   38.9825,       460,
   39.0071,       441,
   39.0316,       457,
   39.0561,       489,
   39.0807,       457,
   39.1052,       490,
   39.1297,       422,
   39.1543,       435,
   39.1788,       447,
   39.2034,       439,
   39.2279,       476,
   39.2524,       468,
    39.277,       451,
   39.3015,       458,
    39.326,       447,
   39.3506,       438,
   39.3751,       469,
   39.3996,       460,
   39.4242,       451,
   39.4487,       464,
   39.4732,       465,
   39.4978,       484,
   39.5223,       484,
   39.5469,       477,
   39.5714,       491,
   39.5959,       474,
   39.6205,       507,
    39.645,       504,
   39.6695,       516,
   39.6941,       512,
   39.7186,       441,
   39.7431,       488,
   39.7677,       493,
   39.7922,       455,
   39.8168,       460,
   39.8413,       460,
   39.8658,       495,
   39.8904,       473,
   39.9149,       451,
   39.9394,       488,
    39.964,       455,
   39.9885,       503,
