;RAW4.00
[RawHeader]
Date=08/18/2021
EstimatedTotalTime=633.306
FurtherDQLReading=0
HardwareIndicator=65519
MeasuredTotalTime=633.306
MeasurementFlag=1
NumberOfMeasuredRanges=1
NumberOfRanges=1
Time=10:17:07

[VarInfo]
Type=USER
Flags=0
Value=Lab Manager

[VarInfo]
Type=SAMPLEID
Flags=0
Value=

[VarInfo]
Type=COMMENT
Flags=0
Value=

[VarInfo]
Type=UTF
Flags=0
Value=

[VarInfo]
Type=CREATOR
Flags=0
Value=BrmlToV4Converter

[VarInfo]
Type=CREATOR_VERSION
Flags=0
Value=7.3.1.0

[HardwareConfiguration]
AbsorptionFactor=9999
ActivateAbsorber=0
Alpha1=0.7093
Alpha2=0.71359
AlphaAverage=0.71073
AlphaRatio=0.5
Analyzer=0
Anode=Mo
AntiScatteringSlit=18
BeamOpticsFlags=0
Beta=0.63229
BetaRelativeIntensity=0
DeactivateAbsorber=0
DetectorSlit=9999
DivergenceSlit=0.2
GoniometerControl=0
GoniometerDiameter=560
GoniometerModel=512
GoniometerStage=7
Monochromator=0
NearSampleSlit=9999
PrimarySollerSlit=2.5
SampleChanger=0
SecondSollerSlit=9999
SynchronousAxis=0
ThinFilmAttachment=9999
WaveUnit=A

[RangeHeader]
ActuallyUsedLambda=0.71073
AdditionalDetectorMask=257
DataRecordLength=4
DelayTime=0
DisplayPlaneNumber=0
EstimatedScanTime=633
ExtraParametersMask=0
GeneratorCurrent=40
GeneratorVoltage=50
Increment=0.0245361
Increment3=0
NumberOfCompletedData=1427
NumberOfCounts=1
NumberOfDetectors=0
NumberOfDrives=2
NumberOfEncoderDrives=0
NumberOfMeasuredData=1427
NumberOfVaryingParameters=0
RangeStartTime=0
RotationSpeed=60
ScanMode=1
ScanType=Locked Coupled
SimulatedMeasConditions=0
SlitChangerIn=0
SmootingWidth=0
Start=5
Steps=1427
SynchronousRotation=0
Time=76.8

[VarInfo]
Type=PSD_DISCRIM
Flags=0
Value=0.488;0.518

[PSD]
ActualTwoTheta=9999
FirstUsedChannel=0
FixedPSD=0
PSDOpening=2.94433
PSDType=5

[Drive]
DriveFlags=1
DriveName=2Theta
DriveNumber=2
DriveOffset=0
OffsetIndex=0
OscillationAmplitude=0
OscillationSpeed=0
StartPosition=5

[Drive]
DriveFlags=1
DriveName=Theta
DriveNumber=1
DriveOffset=0
OffsetIndex=0
OscillationAmplitude=0
OscillationSpeed=0
StartPosition=2.5

[Data]
     Angle,       PSD,
         5,      1191,
   5.02454,      1181,
   5.04907,      1128,
   5.07361,      1207,
   5.09814,      1203,
   5.12268,      1166,
   5.14722,      1168,
   5.17175,      1122,
   5.19629,      1249,
   5.22083,      1137,
   5.24536,      1200,
    5.2699,      1174,
   5.29443,      1036,
   5.31897,      1183,
   5.34351,      1103,
   5.36804,      1206,
   5.39258,      1193,
   5.41711,      1090,
   5.44165,      1258,
   5.46619,      1089,
   5.49072,      1180,
   5.51526,      1144,
   5.53979,      1039,
   5.56433,      1185,
   5.58887,      1067,
    5.6134,      1091,
   5.63794,      1094,
   5.66248,      1029,
   5.68701,      1078,
   5.71155,      1065,
   5.73608,      1094,
   5.76062,      1038,
   5.78516,       970,
   5.80969,      1147,
   5.83423,      1053,
   5.85876,      1063,
    5.8833,      1053,
   5.90784,       981,
   5.93237,      1080,
   5.95691,       984,
   5.98144,      1003,
   6.00598,      1081,
   6.03052,      1019,
   6.05505,      1073,
   6.07959,      1006,
   6.10413,      1026,
   6.12866,      1071,
    6.1532,       969,
   6.17773,      1052,
   6.20227,       936,
   6.22681,       993,
   6.25134,       949,
   6.27588,       900,
   6.30041,      1024,
   6.32495,       983,
   6.34949,       965,
   6.37402,       994,
   6.39856,       939,
    6.4231,       949,
   6.44763,       919,
   6.47217,       918,
    6.4967,       943,
   6.52124,       882,
   6.54578,       931,
   6.57031,       877,
   6.59485,       953,
   6.61938,       961,
   6.64392,       821,
   6.66846,       910,
   6.69299,       885,
   6.71753,       905,
   6.74206,       912,
    6.7666,       889,
   6.79114,       929,
   6.81567,       882,
   6.84021,       890,
   6.86475,       919,
   6.88928,       832,
   6.91382,       939,
   6.93835,       839,
   6.96289,       881,
   6.98743,       939,
   7.01196,       851,
    7.0365,       893,
   7.06103,       824,
   7.08557,       873,
   7.11011,       825,
   7.13464,       838,
   7.15918,       860,
   7.18371,       854,
   7.20825,       822,
   7.23279,       875,
   7.25732,       828,
   7.28186,       837,
    7.3064,       781,
   7.33093,       877,
   7.35547,       865,
      7.38,       728,
   7.40454,       869,
   7.42908,       797,
   7.45361,       830,
   7.47815,       789,
   7.50268,       789,
   7.52722,       840,
   7.55176,       780,
   7.57629,       840,
   7.60083,       860,
   7.62536,       721,
    7.6499,       835,
   7.67444,       753,
   7.69897,       829,
   7.72351,       812,
   7.74805,       720,
   7.77258,       867,
   7.79712,       787,
   7.82165,       737,
   7.84619,       722,
   7.87073,       694,
   7.89526,       728,
    7.9198,       640,
   7.94433,       703,
   7.96887,       705,
   7.99341,       545,
   8.01794,       644,
   8.04248,       537,
   8.06702,       602,
   8.09155,       604,
   8.11609,       552,
   8.14062,       612,
   8.16516,       553,
    8.1897,       587,
   8.21423,       601,
   8.23877,       539,
    8.2633,       646,
   8.28784,       525,
   8.31238,       594,
   8.33691,       586,
   8.36145,       542,
   8.38598,       595,
   8.41052,       549,
   8.43506,       593,
   8.45959,       638,
   8.48413,       508,
   8.50867,       625,
    8.5332,       521,
   8.55774,       552,
   8.58227,       633,
   8.60681,       528,
   8.63135,       588,
   8.65588,       608,
   8.68042,       612,
   8.70495,       638,
   8.72949,       563,
   8.75403,       659,
   8.77856,       595,
    8.8031,       607,
   8.82763,       599,
   8.85217,       586,
   8.87671,       629,
   8.90124,       624,
   8.92578,       633,
   8.95032,       661,
   8.97485,       581,
   8.99939,       690,
   9.02392,       613,
   9.04846,       701,
     9.073,       697,
   9.09753,       651,
   9.12207,       710,
    9.1466,       670,
   9.17114,       754,
   9.19568,       748,
   9.22021,       686,
   9.24475,       724,
   9.26929,       733,
   9.29382,       788,
   9.31836,       796,
   9.34289,       711,
   9.36743,       864,
   9.39197,       743,
    9.4165,       813,
   9.44104,       881,
   9.46557,       800,
   9.49011,       869,
   9.51465,       816,
   9.53918,       807,
   9.56372,       863,
   9.58825,       875,
   9.61279,       943,
   9.63733,       930,
   9.66186,       998,
    9.6864,      1033,
   9.71094,       997,
   9.73547,      1141,
   9.76001,      1090,
   9.78454,      1014,
   9.80908,      1103,
   9.83362,       981,
   9.85815,      1060,
   9.88269,       945,
   9.90722,      1051,
   9.93176,      1034,
    9.9563,      1026,
   9.98083,       974,
   10.0054,      1042,
   10.0299,      1127,
   10.0544,      1127,
    10.079,      1096,
   10.1035,      1125,
    10.128,      1066,
   10.1526,      1128,
   10.1771,      1176,
   10.2017,      1092,
   10.2262,      1141,
   10.2507,      1125,
   10.2753,      1142,
   10.2998,      1166,
   10.3243,      1121,
   10.3489,      1230,
   10.3734,      1186,
   10.3979,      1166,
   10.4225,      1209,
    10.447,      1209,
   10.4716,      1177,
   10.4961,      1261,
   10.5206,      1234,
   10.5452,      1246,
   10.5697,      1221,
   10.5942,      1307,
   10.6188,      1351,
   10.6433,      1452,
   10.6678,      1401,
   10.6924,      1456,
   10.7169,      1447,
   10.7415,      1363,
    10.766,      1379,
   10.7905,      1335,
   10.8151,      1258,
   10.8396,      1355,
   10.8641,      1244,
   10.8887,      1306,
   10.9132,      1350,
   10.9377,      1374,
   10.9623,      1376,
   10.9868,      1329,
   11.0113,      1436,
   11.0359,      1374,
   11.0604,      1392,
    11.085,      1341,
   11.1095,      1299,
    11.134,      1309,
   11.1586,      1368,
   11.1831,      1404,
   11.2076,      1340,
   11.2322,      1416,
   11.2567,      1379,
   11.2812,      1422,
   11.3058,      1480,
   11.3303,      1505,
   11.3549,      1508,
   11.3794,      1485,
   11.4039,      1653,
   11.4285,      1678,
    11.453,      1911,
   11.4775,      1949,
   11.5021,      2096,
   11.5266,      1986,
   11.5511,      2006,
   11.5757,      1919,
   11.6002,      1691,
   11.6248,      1567,
   11.6493,      1569,
   11.6738,      1454,
   11.6984,      1418,
   11.7229,      1472,
   11.7474,      1397,
    11.772,      1377,
   11.7965,      1438,
    11.821,      1392,
   11.8456,      1378,
   11.8701,      1367,
   11.8946,      1380,
   11.9192,      1441,
   11.9437,      1373,
   11.9683,      1343,
   11.9928,      1453,
   12.0173,      1379,
   12.0419,      1419,
   12.0664,      1362,
   12.0909,      1369,
   12.1155,      1324,
     12.14,      1369,
   12.1645,      1365,
   12.1891,      1343,
   12.2136,      1376,
   12.2382,      1376,
   12.2627,      1373,
   12.2872,      1354,
   12.3118,      1481,
   12.3363,      1559,
   12.3608,      1584,
   12.3854,      1770,
   12.4099,      1900,
   12.4344,      2062,
    12.459,      2304,
   12.4835,      2292,
   12.5081,      2285,
   12.5326,      2163,
   12.5571,      2119,
   12.5817,      1878,
   12.6062,      1722,
   12.6307,      1685,
   12.6553,      1497,
   12.6798,      1438,
   12.7043,      1444,
   12.7289,      1333,
   12.7534,      1295,
    12.778,      1358,
   12.8025,      1295,
    12.827,      1286,
   12.8516,      1302,
   12.8761,      1247,
   12.9006,      1300,
   12.9252,      1267,
   12.9497,      1242,
   12.9742,      1260,
   12.9988,      1253,
   13.0233,      1266,
   13.0478,      1230,
   13.0724,      1242,
   13.0969,      1277,
   13.1215,      1292,
    13.146,      1292,
   13.1705,      1181,
   13.1951,      1214,
   13.2196,      1252,
   13.2441,      1261,
   13.2687,      1253,
   13.2932,      1286,
   13.3177,      1259,
   13.3423,      1260,
   13.3668,      1357,
   13.3914,      1394,
   13.4159,      1479,
   13.4404,      1510,
    13.465,      1744,
   13.4895,      2227,
    13.514,      3035,
   13.5386,      3092,
   13.5631,      2759,
   13.5876,      2732,
   13.6122,      2422,
   13.6367,      2007,
   13.6613,      1670,
   13.6858,      1467,
   13.7103,      1319,
   13.7349,      1226,
   13.7594,      1138,
   13.7839,      1177,
   13.8085,      1208,
    13.833,      1176,
   13.8575,      1205,
   13.8821,      1169,
   13.9066,      1104,
   13.9311,      1130,
   13.9557,      1183,
   13.9802,      1128,
   14.0048,      1123,
   14.0293,      1125,
   14.0538,      1134,
   14.0784,      1050,
   14.1029,      1118,
   14.1274,      1075,
    14.152,      1141,
   14.1765,      1065,
    14.201,      1036,
   14.2256,      1086,
   14.2501,      1039,
   14.2747,      1116,
   14.2992,      1044,
   14.3237,      1054,
   14.3483,      1117,
   14.3728,      1137,
   14.3973,      1104,
   14.4219,      1121,
   14.4464,      1147,
   14.4709,      1081,
   14.4955,      1153,
     14.52,      1101,
   14.5446,      1082,
   14.5691,      1039,
   14.5936,      1044,
   14.6182,       999,
   14.6427,      1036,
   14.6672,      1043,
   14.6918,      1036,
   14.7163,      1059,
   14.7408,      1079,
   14.7654,      1121,
   14.7899,      1084,
   14.8144,      1057,
    14.839,      1106,
   14.8635,      1095,
   14.8881,      1173,
   14.9126,      1237,
   14.9371,      1298,
   14.9617,      1476,
   14.9862,      1487,
   15.0107,      1725,
   15.0353,      1809,
   15.0598,      1806,
   15.0843,      1810,
   15.1089,      1720,
   15.1334,      1617,
    15.158,      1554,
   15.1825,      1443,
    15.207,      1321,
   15.2316,      1238,
   15.2561,      1108,
   15.2806,      1065,
   15.3052,       990,
   15.3297,      1073,
   15.3542,       991,
   15.3788,       994,
   15.4033,       961,
   15.4279,       935,
   15.4524,       915,
   15.4769,       931,
   15.5015,       882,
    15.526,       948,
   15.5505,       880,
   15.5751,       903,
   15.5996,       932,
   15.6241,       930,
   15.6487,       955,
   15.6732,       954,
   15.6977,       886,
   15.7223,       871,
   15.7468,       881,
   15.7714,       883,
   15.7959,       869,
   15.8204,       883,
    15.845,       815,
   15.8695,       827,
    15.894,       879,
   15.9186,       825,
   15.9431,       846,
   15.9676,       777,
   15.9922,       816,
   16.0167,       861,
   16.0413,       812,
   16.0658,       827,
   16.0903,       895,
   16.1149,       828,
   16.1394,       820,
   16.1639,       751,
   16.1885,       830,
    16.213,       809,
   16.2375,       759,
   16.2621,       807,
   16.2866,       824,
   16.3112,       793,
   16.3357,       803,
   16.3602,       806,
   16.3848,       877,
   16.4093,       855,
   16.4338,       967,
   16.4584,       993,
   16.4829,       957,
   16.5074,       945,
    16.532,       898,
   16.5565,       936,
    16.581,       901,
   16.6056,       854,
   16.6301,       815,
   16.6547,       764,
   16.6792,       736,
   16.7037,       735,
   16.7283,       755,
   16.7528,       708,
   16.7773,       734,
   16.8019,       708,
   16.8264,       724,
   16.8509,       729,
   16.8755,       714,
      16.9,       800,
   16.9246,       688,
   16.9491,       710,
   16.9736,       720,
   16.9982,       728,
   17.0227,       709,
   17.0472,       691,
   17.0718,       743,
   17.0963,       723,
   17.1208,       694,
   17.1454,       723,
   17.1699,       721,
   17.1945,       665,
    17.219,       749,
   17.2435,       712,
   17.2681,       708,
   17.2926,       686,
   17.3171,       729,
   17.3417,       713,
   17.3662,       718,
   17.3907,       763,
   17.4153,       659,
   17.4398,       696,
   17.4643,       705,
   17.4889,       712,
   17.5134,       707,
    17.538,       749,
   17.5625,       768,
    17.587,       740,
   17.6116,       737,
   17.6361,       755,
   17.6606,       753,
   17.6852,       808,
   17.7097,       759,
   17.7342,       791,
   17.7588,       751,
   17.7833,       762,
   17.8079,       831,
   17.8324,       773,
   17.8569,       770,
   17.8815,       815,
    17.906,       823,
   17.9305,       948,
   17.9551,       991,
   17.9796,      1084,
   18.0041,      1010,
   18.0287,       955,
   18.0532,       934,
   18.0778,       930,
   18.1023,       862,
   18.1268,       860,
   18.1514,       786,
   18.1759,       779,
   18.2004,       717,
    18.225,       714,
   18.2495,       740,
    18.274,       701,
   18.2986,       710,
   18.3231,       721,
   18.3476,       692,
   18.3722,       740,
   18.3967,       723,
   18.4213,       723,
   18.4458,       742,
   18.4703,       718,
   18.4949,       671,
   18.5194,       686,
   18.5439,       688,
   18.5685,       725,
    18.593,       739,
   18.6175,       669,
   18.6421,       693,
   18.6666,       689,
   18.6912,       714,
   18.7157,       738,
   18.7402,       652,
   18.7648,       706,
   18.7893,       647,
   18.8138,       677,
   18.8384,       715,
   18.8629,       741,
   18.8874,       700,
    18.912,       724,
   18.9365,       760,
   18.9611,       697,
   18.9856,       724,
   19.0101,       738,
   19.0347,       725,
   19.0592,       716,
   19.0837,       754,
   19.1083,       727,
   19.1328,       742,
   19.1573,       723,
   19.1819,       713,
   19.2064,       735,
    19.231,       715,
   19.2555,       662,
     19.28,       711,
   19.3046,       732,
   19.3291,       756,
   19.3536,       734,
   19.3782,       798,
   19.4027,       740,
   19.4272,       779,
   19.4518,       826,
   19.4763,       731,
   19.5008,       805,
   19.5254,       878,
   19.5499,       808,
   19.5745,       915,
    19.599,       987,
   19.6235,      1034,
   19.6481,       889,
   19.6726,       931,
   19.6971,       966,
   19.7217,       925,
   19.7462,       929,
   19.7707,       861,
   19.7953,       912,
   19.8198,      1009,
   19.8444,       977,
   19.8689,      1066,
   19.8934,      1112,
    19.918,      1154,
   19.9425,      1133,
    19.967,      1135,
   19.9916,      1057,
   20.0161,      1064,
   20.0406,      1033,
   20.0652,       903,
   20.0897,       907,
   20.1143,       865,
   20.1388,       785,
   20.1633,       777,
   20.1879,       702,
   20.2124,       717,
   20.2369,       735,
   20.2615,       687,
    20.286,       715,
   20.3105,       686,
   20.3351,       701,
   20.3596,       678,
   20.3841,       676,
   20.4087,       680,
   20.4332,       707,
   20.4578,       727,
   20.4823,       711,
   20.5068,       658,
   20.5314,       670,
   20.5559,       691,
   20.5804,       720,
    20.605,       660,
   20.6295,       656,
    20.654,       683,
   20.6786,       608,
   20.7031,       706,
   20.7277,       594,
   20.7522,       700,
   20.7767,       671,
   20.8013,       649,
   20.8258,       649,
   20.8503,       622,
   20.8749,       711,
   20.8994,       635,
   20.9239,       668,
   20.9485,       674,
    20.973,       706,
   20.9976,       669,
   21.0221,       666,
   21.0466,       657,
   21.0712,       639,
   21.0957,       673,
   21.1202,       692,
   21.1448,       655,
   21.1693,       678,
   21.1938,       667,
   21.2184,       664,
   21.2429,       697,
   21.2674,       761,
    21.292,       767,
   21.3165,       769,
   21.3411,       844,
   21.3656,       807,
   21.3901,       794,
   21.4147,       816,
   21.4392,       867,
   21.4637,      1091,
   21.4883,      1044,
   21.5128,       958,
   21.5373,       861,
   21.5619,       815,
   21.5864,       885,
    21.611,       827,
   21.6355,       799,
     21.66,       786,
   21.6846,       709,
   21.7091,       733,
   21.7336,       746,
   21.7582,       722,
   21.7827,       736,
   21.8072,       765,
   21.8318,       744,
   21.8563,       784,
   21.8809,       940,
   21.9054,      1046,
   21.9299,      1012,
   21.9545,       947,
    21.979,       839,
   22.0035,       845,
   22.0281,       937,
   22.0526,       873,
   22.0771,       857,
   22.1017,       927,
   22.1262,       791,
   22.1507,       847,
   22.1753,       769,
   22.1998,       768,
   22.2244,       786,
   22.2489,       760,
   22.2734,       793,
    22.298,       869,
   22.3225,       745,
    22.347,       720,
   22.3716,       737,
   22.3961,       749,
   22.4206,       762,
   22.4452,       724,
   22.4697,       762,
   22.4943,       887,
   22.5188,       891,
   22.5433,      1013,
   22.5679,       955,
   22.5924,      1056,
   22.6169,       983,
   22.6415,       964,
    22.666,       973,
   22.6905,       945,
   22.7151,       891,
   22.7396,       842,
   22.7642,       838,
   22.7887,       750,
   22.8132,       758,
   22.8378,       704,
   22.8623,       715,
   22.8868,       688,
   22.9114,       732,
   22.9359,       622,
   22.9604,       660,
    22.985,       675,
   23.0095,       676,
    23.034,       641,
   23.0586,       673,
   23.0831,       669,
   23.1077,       691,
   23.1322,       684,
   23.1567,       672,
   23.1813,       615,
   23.2058,       640,
   23.2303,       626,
   23.2549,       594,
   23.2794,       622,
   23.3039,       603,
   23.3285,       683,
    23.353,       611,
   23.3776,       616,
   23.4021,       610,
   23.4266,       617,
   23.4512,       604,
   23.4757,       609,
   23.5002,       626,
   23.5248,       598,
   23.5493,       586,
   23.5738,       642,
   23.5984,       631,
   23.6229,       613,
   23.6475,       637,
    23.672,       583,
   23.6965,       633,
   23.7211,       634,
   23.7456,       609,
   23.7701,       601,
   23.7947,       613,
   23.8192,       613,
   23.8437,       618,
   23.8683,       652,
   23.8928,       588,
   23.9173,       621,
   23.9419,       609,
   23.9664,       597,
    23.991,       657,
   24.0155,       661,
     24.04,       622,
   24.0646,       564,
   24.0891,       640,
   24.1136,       600,
   24.1382,       575,
   24.1627,       620,
   24.1872,       623,
   24.2118,       574,
   24.2363,       608,
   24.2609,       619,
   24.2854,       625,
   24.3099,       663,
   24.3345,       656,
    24.359,       625,
   24.3835,       647,
   24.4081,       646,
   24.4326,       618,
   24.4571,       579,
   24.4817,       630,
   24.5062,       658,
   24.5308,       640,
   24.5553,       658,
   24.5798,       658,
   24.6044,       673,
   24.6289,       694,
   24.6534,       675,
    24.678,       619,
   24.7025,       630,
    24.727,       687,
   24.7516,       626,
   24.7761,       658,
   24.8006,       683,
   24.8252,       647,
   24.8497,       664,
   24.8743,       717,
   24.8988,       733,
   24.9233,       679,
   24.9479,       771,
   24.9724,       754,
   24.9969,       790,
   25.0215,       773,
    25.046,       748,
   25.0705,       817,
   25.0951,       746,
   25.1196,       797,
   25.1442,       840,
   25.1687,       711,
   25.1932,       770,
   25.2178,       711,
   25.2423,       733,
   25.2668,       730,
   25.2914,       746,
   25.3159,       760,
   25.3404,       716,
    25.365,       716,
   25.3895,       677,
   25.4141,       710,
   25.4386,       670,
   25.4631,       696,
   25.4877,       704,
   25.5122,       677,
   25.5367,       708,
   25.5613,       707,
   25.5858,       717,
   25.6103,       717,
   25.6349,       741,
   25.6594,       767,
   25.6839,       755,
   25.7085,       760,
    25.733,       646,
   25.7576,       740,
   25.7821,       703,
   25.8066,       757,
   25.8312,       724,
   25.8557,       719,
   25.8802,       716,
   25.9048,       698,
   25.9293,       694,
   25.9538,       675,
   25.9784,       679,
   26.0029,       652,
   26.0275,       667,
    26.052,       648,
   26.0765,       636,
   26.1011,       653,
   26.1256,       669,
   26.1501,       644,
   26.1747,       633,
   26.1992,       596,
   26.2237,       620,
   26.2483,       653,
   26.2728,       616,
   26.2974,       623,
   26.3219,       642,
   26.3464,       558,
    26.371,       647,
   26.3955,       645,
     26.42,       642,
   26.4446,       631,
   26.4691,       625,
   26.4936,       671,
   26.5182,       678,
   26.5427,       646,
   26.5673,       640,
   26.5918,       650,
   26.6163,       677,
   26.6409,       649,
   26.6654,       696,
   26.6899,       694,
   26.7145,       678,
    26.739,       660,
   26.7635,       681,
   26.7881,       655,
   26.8126,       670,
   26.8371,       719,
   26.8617,       694,
   26.8862,       723,
   26.9108,       658,
   26.9353,       685,
   26.9598,       735,
   26.9844,       783,
   27.0089,       761,
   27.0334,       770,
    27.058,       766,
   27.0825,       689,
    27.107,       678,
   27.1316,       723,
   27.1561,       779,
   27.1807,       745,
   27.2052,       739,
   27.2297,       704,
   27.2543,       732,
   27.2788,       720,
   27.3033,       755,
   27.3279,       698,
   27.3524,       664,
   27.3769,       662,
   27.4015,       679,
    27.426,       690,
   27.4506,       659,
   27.4751,       718,
   27.4996,       695,
   27.5242,       691,
   27.5487,       641,
   27.5732,       652,
   27.5978,       652,
   27.6223,       701,
   27.6468,       655,
   27.6714,       672,
   27.6959,       668,
   27.7204,       682,
    27.745,       632,
   27.7695,       686,
   27.7941,       620,
   27.8186,       692,
   27.8431,       730,
   27.8677,       688,
   27.8922,       652,
   27.9167,       649,
   27.9413,       674,
   27.9658,       714,
   27.9903,       694,
   28.0149,       689,
   28.0394,       675,
    28.064,       691,
   28.0885,       680,
    28.113,       723,
   28.1376,       700,
   28.1621,       664,
   28.1866,       640,
   28.2112,       679,
   28.2357,       666,
   28.2602,       646,
   28.2848,       651,
   28.3093,       682,
   28.3339,       642,
   28.3584,       620,
   28.3829,       688,
   28.4075,       715,
    28.432,       697,
   28.4565,       680,
   28.4811,       693,
   28.5056,       731,
   28.5301,       649,
   28.5547,       657,
   28.5792,       691,
   28.6037,       735,
   28.6283,       738,
   28.6528,       702,
   28.6774,       729,
   28.7019,       696,
   28.7264,       680,
    28.751,       686,
   28.7755,       729,
      28.8,       708,
   28.8246,       749,
   28.8491,       734,
   28.8736,       697,
   28.8982,       681,
   28.9227,       652,
   28.9473,       681,
   28.9718,       705,
   28.9963,       695,
   29.0209,       721,
   29.0454,       733,
   29.0699,       700,
   29.0945,       650,
    29.119,       668,
   29.1435,       672,
   29.1681,       701,
   29.1926,       621,
   29.2172,       604,
   29.2417,       679,
   29.2662,       688,
   29.2908,       634,
   29.3153,       693,
   29.3398,       646,
   29.3644,       624,
   29.3889,       641,
   29.4134,       622,
    29.438,       626,
   29.4625,       622,
    29.487,       618,
   29.5116,       624,
   29.5361,       582,
   29.5607,       646,
   29.5852,       652,
   29.6097,       650,
   29.6343,       664,
   29.6588,       613,
   29.6833,       657,
   29.7079,       630,
   29.7324,       576,
   29.7569,       641,
   29.7815,       641,
    29.806,       617,
   29.8306,       615,
   29.8551,       625,
   29.8796,       636,
   29.9042,       636,
   29.9287,       627,
   29.9532,       640,
   29.9778,       593,
   30.0023,       597,
   30.0268,       666,
   30.0514,       624,
   30.0759,       655,
   30.1005,       639,
    30.125,       612,
   30.1495,       620,
   30.1741,       649,
   30.1986,       629,
   30.2231,       672,
   30.2477,       658,
   30.2722,       627,
   30.2967,       662,
   30.3213,       632,
   30.3458,       614,
   30.3703,       622,
   30.3949,       679,
   30.4194,       635,
    30.444,       666,
   30.4685,       690,
    30.493,       648,
   30.5176,       639,
   30.5421,       603,
   30.5666,       607,
   30.5912,       620,
   30.6157,       590,
   30.6402,       617,
   30.6648,       618,
   30.6893,       621,
   30.7139,       651,
   30.7384,       634,
   30.7629,       598,
   30.7875,       657,
    30.812,       618,
   30.8365,       644,
   30.8611,       653,
   30.8856,       651,
   30.9101,       648,
   30.9347,       607,
   30.9592,       685,
   30.9838,       663,
   31.0083,       605,
   31.0328,       580,
   31.0574,       595,
   31.0819,       629,
   31.1064,       608,
    31.131,       595,
   31.1555,       624,
     31.18,       629,
   31.2046,       601,
   31.2291,       595,
   31.2536,       583,
   31.2782,       622,
   31.3027,       639,
   31.3273,       609,
   31.3518,       592,
   31.3763,       648,
   31.4009,       626,
   31.4254,       646,
   31.4499,       606,
   31.4745,       617,
    31.499,       656,
   31.5235,       609,
   31.5481,       638,
   31.5726,       619,
   31.5972,       652,
   31.6217,       581,
   31.6462,       602,
   31.6708,       694,
   31.6953,       636,
   31.7198,       660,
   31.7444,       599,
   31.7689,       594,
   31.7934,       583,
    31.818,       669,
   31.8425,       666,
   31.8671,       601,
   31.8916,       656,
   31.9161,       613,
   31.9407,       616,
   31.9652,       643,
   31.9897,       631,
   32.0143,       639,
   32.0388,       656,
   32.0633,       668,
   32.0879,       634,
   32.1124,       610,
   32.1369,       671,
   32.1615,       658,
    32.186,       663,
   32.2106,       623,
   32.2351,       578,
   32.2596,       593,
   32.2842,       599,
   32.3087,       595,
   32.3332,       598,
   32.3578,       573,
   32.3823,       586,
   32.4068,       575,
   32.4314,       567,
   32.4559,       568,
   32.4805,       613,
    32.505,       592,
   32.5295,       554,
   32.5541,       582,
   32.5786,       585,
   32.6031,       534,
   32.6277,       591,
   32.6522,       574,
   32.6767,       538,
   32.7013,       552,
   32.7258,       582,
   32.7504,       569,
   32.7749,       555,
   32.7994,       602,
    32.824,       541,
   32.8485,       536,
    32.873,       554,
   32.8976,       543,
   32.9221,       587,
   32.9466,       526,
   32.9712,       526,
   32.9957,       603,
   33.0203,       550,
   33.0448,       605,
   33.0693,       533,
   33.0939,       548,
   33.1184,       578,
   33.1429,       577,
   33.1675,       542,
    33.192,       536,
   33.2165,       525,
   33.2411,       548,
   33.2656,       570,
   33.2901,       516,
   33.3147,       603,
   33.3392,       585,
   33.3638,       607,
   33.3883,       630,
   33.4128,       599,
   33.4374,       560,
   33.4619,       568,
   33.4864,       524,
    33.511,       583,
   33.5355,       576,
     33.56,       573,
   33.5846,       538,
   33.6091,       511,
   33.6337,       533,
   33.6582,       553,
   33.6827,       589,
   33.7073,       561,
   33.7318,       538,
   33.7563,       526,
   33.7809,       573,
   33.8054,       539,
   33.8299,       533,
   33.8545,       507,
    33.879,       465,
   33.9036,       508,
   33.9281,       552,
   33.9526,       533,
   33.9772,       553,
   34.0017,       528,
   34.0262,       515,
   34.0508,       533,
   34.0753,       514,
   34.0998,       486,
   34.1244,       530,
   34.1489,       507,
   34.1734,       525,
    34.198,       535,
   34.2225,       511,
   34.2471,       525,
   34.2716,       538,
   34.2961,       537,
   34.3207,       507,
   34.3452,       506,
   34.3697,       492,
   34.3943,       519,
   34.4188,       529,
   34.4433,       519,
   34.4679,       495,
   34.4924,       506,
    34.517,       499,
   34.5415,       489,
    34.566,       480,
   34.5906,       499,
   34.6151,       495,
   34.6396,       519,
   34.6642,       472,
   34.6887,       528,
   34.7132,       528,
   34.7378,       495,
   34.7623,       533,
   34.7869,       546,
   34.8114,       518,
   34.8359,       546,
   34.8605,       544,
    34.885,       529,
   34.9095,       550,
   34.9341,       582,
   34.9586,       584,
   34.9831,       557,
   35.0077,       602,
   35.0322,       527,
   35.0567,       555,
   35.0813,       584,
   35.1058,       561,
   35.1304,       576,
   35.1549,       523,
   35.1794,       487,
    35.204,       510,
   35.2285,       541,
    35.253,       524,
   35.2776,       512,
   35.3021,       528,
   35.3266,       530,
   35.3512,       523,
   35.3757,       498,
   35.4003,       504,
   35.4248,       499,
   35.4493,       456,
   35.4739,       495,
   35.4984,       491,
   35.5229,       493,
   35.5475,       512,
    35.572,       524,
   35.5965,       512,
   35.6211,       513,
   35.6456,       466,
   35.6702,       561,
   35.6947,       495,
   35.7192,       528,
   35.7438,       514,
   35.7683,       500,
   35.7928,       535,
   35.8174,       539,
   35.8419,       514,
   35.8664,       489,
    35.891,       536,
   35.9155,       551,
     35.94,       527,
   35.9646,       569,
   35.9891,       501,
   36.0137,       508,
   36.0382,       506,
   36.0627,       493,
   36.0873,       524,
   36.1118,       535,
   36.1363,       543,
   36.1609,       500,
   36.1854,       485,
   36.2099,       522,
   36.2345,       460,
    36.259,       502,
   36.2836,       556,
   36.3081,       511,
   36.3326,       514,
   36.3572,       568,
   36.3817,       482,
   36.4062,       481,
   36.4308,       486,
   36.4553,       503,
   36.4798,       459,
   36.5044,       524,
   36.5289,       490,
   36.5535,       503,
    36.578,       491,
   36.6025,       420,
   36.6271,       443,
   36.6516,       466,
   36.6761,       483,
   36.7007,       485,
   36.7252,       495,
   36.7497,       458,
   36.7743,       467,
   36.7988,       432,
   36.8233,       428,
   36.8479,       419,
   36.8724,       429,
    36.897,       451,
   36.9215,       442,
    36.946,       444,
   36.9706,       480,
   36.9951,       431,
   37.0196,       443,
   37.0442,       457,
   37.0687,       447,
   37.0932,       445,
   37.1178,       416,
   37.1423,       446,
   37.1669,       423,
   37.1914,       405,
   37.2159,       465,
   37.2405,       439,
    37.265,       434,
   37.2895,       412,
   37.3141,       431,
   37.3386,       412,
   37.3631,       442,
   37.3877,       421,
   37.4122,       416,
   37.4368,       427,
   37.4613,       435,
   37.4858,       471,
   37.5104,       439,
   37.5349,       426,
   37.5594,       401,
    37.584,       407,
   37.6085,       436,
    37.633,       427,
   37.6576,       407,
   37.6821,       389,
   37.7066,       421,
   37.7312,       377,
   37.7557,       409,
   37.7803,       418,
   37.8048,       436,
   37.8293,       415,
   37.8539,       435,
   37.8784,       416,
   37.9029,       406,
   37.9275,       434,
    37.952,       380,
   37.9765,       423,
   38.0011,       388,
   38.0256,       461,
   38.0502,       433,
   38.0747,       412,
   38.0992,       381,
   38.1238,       429,
   38.1483,       415,
   38.1728,       417,
   38.1974,       393,
   38.2219,       456,
   38.2464,       384,
    38.271,       423,
   38.2955,       377,
   38.3201,       387,
   38.3446,       357,
   38.3691,       394,
   38.3937,       377,
   38.4182,       431,
   38.4427,       407,
   38.4673,       362,
   38.4918,       409,
   38.5163,       434,
   38.5409,       440,
   38.5654,       382,
   38.5899,       369,
   38.6145,       419,
    38.639,       395,
   38.6636,       409,
   38.6881,       381,
   38.7126,       393,
   38.7372,       402,
   38.7617,       349,
   38.7862,       368,
   38.8108,       369,
   38.8353,       372,
   38.8598,       404,
   38.8844,       439,
   38.9089,       384,
   38.9335,       443,
    38.958,       359,
   38.9825,       404,
   39.0071,       379,
   39.0316,       428,
   39.0561,       422,
   39.0807,       375,
   39.1052,       422,
   39.1297,       396,
   39.1543,       427,
   39.1788,       377,
   39.2034,       404,
   39.2279,       400,
   39.2524,       432,
    39.277,       402,
   39.3015,       433,
    39.326,       390,
   39.3506,       403,
   39.3751,       412,
   39.3996,       398,
   39.4242,       426,
   39.4487,       415,
   39.4732,       424,
   39.4978,       453,
   39.5223,       406,
   39.5469,       456,
   39.5714,       466,
   39.5959,       425,
   39.6205,       452,
    39.645,       440,
   39.6695,       502,
   39.6941,       506,
   39.7186,       424,
   39.7431,       468,
   39.7677,       468,
   39.7922,       472,
   39.8168,       459,
   39.8413,       427,
   39.8658,       418,
   39.8904,       411,
   39.9149,       440,
   39.9394,       435,
    39.964,       420,
   39.9885,       449,
