;RAW4.00
[RawHeader]
Date=08/18/2021
EstimatedTotalTime=633.888
FurtherDQLReading=0
HardwareIndicator=65519
MeasuredTotalTime=633.888
MeasurementFlag=1
NumberOfMeasuredRanges=1
NumberOfRanges=1
Time=10:36:19

[VarInfo]
Type=USER
Flags=0
Value=Lab Manager

[VarInfo]
Type=SAMPLEID
Flags=0
Value=

[VarInfo]
Type=COMMENT
Flags=0
Value=

[VarInfo]
Type=UTF
Flags=0
Value=

[VarInfo]
Type=CREATOR
Flags=0
Value=BrmlToV4Converter

[VarInfo]
Type=CREATOR_VERSION
Flags=0
Value=7.3.1.0

[HardwareConfiguration]
AbsorptionFactor=9999
ActivateAbsorber=0
Alpha1=0.7093
Alpha2=0.71359
AlphaAverage=0.71073
AlphaRatio=0.5
Analyzer=0
Anode=Mo
AntiScatteringSlit=18
BeamOpticsFlags=0
Beta=0.63229
BetaRelativeIntensity=0
DeactivateAbsorber=0
DetectorSlit=9999
DivergenceSlit=0.2
GoniometerControl=0
GoniometerDiameter=560
GoniometerModel=512
GoniometerStage=7
Monochromator=0
NearSampleSlit=9999
PrimarySollerSlit=2.5
SampleChanger=0
SecondSollerSlit=9999
SynchronousAxis=0
ThinFilmAttachment=9999
WaveUnit=A

[RangeHeader]
ActuallyUsedLambda=0.71073
AdditionalDetectorMask=257
DataRecordLength=4
DelayTime=0
DisplayPlaneNumber=0
EstimatedScanTime=634
ExtraParametersMask=0
GeneratorCurrent=40
GeneratorVoltage=50
Increment=0.0245361
Increment3=0
NumberOfCompletedData=1427
NumberOfCounts=1
NumberOfDetectors=0
NumberOfDrives=2
NumberOfEncoderDrives=0
NumberOfMeasuredData=1427
NumberOfVaryingParameters=0
RangeStartTime=0
RotationSpeed=60
ScanMode=1
ScanType=Locked Coupled
SimulatedMeasConditions=0
SlitChangerIn=0
SmootingWidth=0
Start=5
Steps=1427
SynchronousRotation=0
Time=76.8

[VarInfo]
Type=PSD_DISCRIM
Flags=0
Value=0.488;0.518

[PSD]
ActualTwoTheta=9999
FirstUsedChannel=0
FixedPSD=0
PSDOpening=2.94433
PSDType=5

[Drive]
DriveFlags=1
DriveName=2Theta
DriveNumber=2
DriveOffset=0
OffsetIndex=0
OscillationAmplitude=0
OscillationSpeed=0
StartPosition=5

[Drive]
DriveFlags=1
DriveName=Theta
DriveNumber=1
DriveOffset=0
OffsetIndex=0
OscillationAmplitude=0
OscillationSpeed=0
StartPosition=2.5

[Data]
     Angle,       PSD,
         5,      1304,
   5.02454,      1235,
   5.04907,      1282,
   5.07361,      1245,
   5.09814,      1194,
   5.12268,      1319,
   5.14722,      1253,
   5.17175,      1310,
   5.19629,      1289,
   5.22083,      1166,
   5.24536,      1300,
    5.2699,      1171,
   5.29443,      1245,
   5.31897,      1214,
   5.34351,      1193,
   5.36804,      1264,
   5.39258,      1150,
   5.41711,      1222,
   5.44165,      1214,
   5.46619,      1091,
   5.49072,      1192,
   5.51526,      1084,
   5.53979,      1266,
   5.56433,      1127,
   5.58887,      1156,
    5.6134,      1186,
   5.63794,      1058,
   5.66248,      1221,
   5.68701,      1197,
   5.71155,      1056,
   5.73608,      1157,
   5.76062,      1120,
   5.78516,      1141,
   5.80969,      1167,
   5.83423,      1122,
   5.85876,      1172,
    5.8833,      1140,
   5.90784,      1072,
   5.93237,      1162,
   5.95691,      1058,
   5.98144,      1120,
   6.00598,      1101,
   6.03052,      1065,
   6.05505,      1065,
   6.07959,      1035,
   6.10413,      1101,
   6.12866,       981,
    6.1532,      1053,
   6.17773,      1112,
   6.20227,      1028,
   6.22681,      1032,
   6.25134,      1015,
   6.27588,      1035,
   6.30041,      1048,
   6.32495,       958,
   6.34949,      1096,
   6.37402,       978,
   6.39856,       995,
    6.4231,      1014,
   6.44763,       941,
   6.47217,      1012,
    6.4967,       942,
   6.52124,       984,
   6.54578,       990,
   6.57031,       917,
   6.59485,       962,
   6.61938,       922,
   6.64392,       998,
   6.66846,       977,
   6.69299,       950,
   6.71753,       959,
   6.74206,       907,
    6.7666,       931,
   6.79114,       972,
   6.81567,       914,
   6.84021,       933,
   6.86475,       876,
   6.88928,       925,
   6.91382,       920,
   6.93835,       838,
   6.96289,       889,
   6.98743,       853,
   7.01196,       917,
    7.0365,       933,
   7.06103,       863,
   7.08557,       973,
   7.11011,       813,
   7.13464,       896,
   7.15918,       890,
   7.18371,       844,
   7.20825,       942,
   7.23279,       838,
   7.25732,       865,
   7.28186,       841,
    7.3064,       795,
   7.33093,       965,
   7.35547,       780,
      7.38,       859,
   7.40454,       896,
   7.42908,       752,
   7.45361,       875,
   7.47815,       829,
   7.50268,       827,
   7.52722,       904,
   7.55176,       757,
   7.57629,       906,
   7.60083,       791,
   7.62536,       879,
    7.6499,       861,
   7.67444,       747,
   7.69897,       848,
   7.72351,       784,
   7.74805,       889,
   7.77258,       821,
   7.79712,       708,
   7.82165,       824,
   7.84619,       711,
   7.87073,       780,
   7.89526,       744,
    7.9198,       605,
   7.94433,       727,
   7.96887,       642,
   7.99341,       629,
   8.01794,       631,
   8.04248,       554,
   8.06702,       705,
   8.09155,       558,
   8.11609,       601,
   8.14062,       640,
   8.16516,       544,
    8.1897,       631,
   8.21423,       581,
   8.23877,       638,
    8.2633,       615,
   8.28784,       533,
   8.31238,       648,
   8.33691,       545,
   8.36145,       598,
   8.38598,       657,
   8.41052,       577,
   8.43506,       659,
   8.45959,       539,
   8.48413,       627,
   8.50867,       660,
    8.5332,       542,
   8.55774,       672,
   8.58227,       582,
   8.60681,       595,
   8.63135,       609,
   8.65588,       553,
   8.68042,       651,
   8.70495,       561,
   8.72949,       587,
   8.75403,       637,
   8.77856,       515,
    8.8031,       593,
   8.82763,       547,
   8.85217,       630,
   8.87671,       641,
   8.90124,       542,
   8.92578,       701,
   8.95032,       539,
   8.97485,       600,
   8.99939,       588,
   9.02392,       523,
   9.04846,       647,
     9.073,       517,
   9.09753,       572,
   9.12207,       626,
    9.1466,       546,
   9.17114,       614,
   9.19568,       601,
   9.22021,       626,
   9.24475,       594,
   9.26929,       519,
   9.29382,       644,
   9.31836,       540,
   9.34289,       647,
   9.36743,       620,
   9.39197,       579,
    9.4165,       715,
   9.44104,       578,
   9.46557,       648,
   9.49011,       703,
   9.51465,       561,
   9.53918,       683,
   9.56372,       611,
   9.58825,       679,
   9.61279,       733,
   9.63733,       675,
   9.66186,       798,
    9.6864,       689,
   9.71094,       736,
   9.73547,       752,
   9.76001,       661,
   9.78454,       726,
   9.80908,       682,
   9.83362,       751,
   9.85815,       779,
   9.88269,       701,
   9.90722,       835,
   9.93176,       716,
    9.9563,       757,
   9.98083,       804,
   10.0054,       778,
   10.0299,       902,
   10.0544,       764,
    10.079,       859,
   10.1035,       919,
    10.128,       875,
   10.1526,       960,
   10.1771,       879,
   10.2017,       911,
   10.2262,       953,
   10.2507,       884,
   10.2753,       945,
   10.2998,       982,
   10.3243,       988,
   10.3489,       977,
   10.3734,       976,
   10.3979,      1057,
   10.4225,       998,
    10.447,      1067,
   10.4716,      1046,
   10.4961,      1125,
   10.5206,      1201,
   10.5452,      1152,
   10.5697,      1316,
   10.5942,      1395,
   10.6188,      1324,
   10.6433,      1366,
   10.6678,      1230,
   10.6924,      1229,
   10.7169,      1215,
   10.7415,      1140,
    10.766,      1258,
   10.7905,      1240,
   10.8151,      1269,
   10.8396,      1211,
   10.8641,      1216,
   10.8887,      1246,
   10.9132,      1296,
   10.9377,      1294,
   10.9623,      1273,
   10.9868,      1297,
   11.0113,      1340,
   11.0359,      1313,
   11.0604,      1413,
    11.085,      1388,
   11.1095,      1386,
    11.134,      1416,
   11.1586,      1334,
   11.1831,      1408,
   11.2076,      1442,
   11.2322,      1382,
   11.2567,      1436,
   11.2812,      1484,
   11.3058,      1620,
   11.3303,      1667,
   11.3549,      1687,
   11.3794,      1930,
   11.4039,      1973,
   11.4285,      2016,
    11.453,      2022,
   11.4775,      1963,
   11.5021,      1908,
   11.5266,      1734,
   11.5511,      1689,
   11.5757,      1525,
   11.6002,      1533,
   11.6248,      1480,
   11.6493,      1483,
   11.6738,      1430,
   11.6984,      1553,
   11.7229,      1506,
   11.7474,      1484,
    11.772,      1449,
   11.7965,      1468,
    11.821,      1465,
   11.8456,      1496,
   11.8701,      1565,
   11.8946,      1511,
   11.9192,      1561,
   11.9437,      1519,
   11.9683,      1492,
   11.9928,      1512,
   12.0173,      1488,
   12.0419,      1497,
   12.0664,      1516,
   12.0909,      1528,
   12.1155,      1460,
     12.14,      1511,
   12.1645,      1497,
   12.1891,      1547,
   12.2136,      1618,
   12.2382,      1623,
   12.2627,      1652,
   12.2872,      1622,
   12.3118,      1789,
   12.3363,      1939,
   12.3608,      2154,
   12.3854,      2261,
   12.4099,      2278,
   12.4344,      2394,
    12.459,      2226,
   12.4835,      2107,
   12.5081,      1833,
   12.5326,      1776,
   12.5571,      1660,
   12.5817,      1547,
   12.6062,      1509,
   12.6307,      1476,
   12.6553,      1440,
   12.6798,      1435,
   12.7043,      1427,
   12.7289,      1416,
   12.7534,      1414,
    12.778,      1440,
   12.8025,      1356,
    12.827,      1401,
   12.8516,      1454,
   12.8761,      1406,
   12.9006,      1405,
   12.9252,      1435,
   12.9497,      1322,
   12.9742,      1360,
   12.9988,      1409,
   13.0233,      1366,
   13.0478,      1340,
   13.0724,      1355,
   13.0969,      1451,
   13.1215,      1400,
    13.146,      1345,
   13.1705,      1354,
   13.1951,      1366,
   13.2196,      1375,
   13.2441,      1388,
   13.2687,      1412,
   13.2932,      1447,
   13.3177,      1523,
   13.3423,      1554,
   13.3668,      1841,
   13.3914,      2170,
   13.4159,      2879,
   13.4404,      3873,
    13.465,      3643,
   13.4895,      3198,
    13.514,      3023,
   13.5386,      2742,
   13.5631,      2104,
   13.5876,      1710,
   13.6122,      1526,
   13.6367,      1382,
   13.6613,      1331,
   13.6858,      1372,
   13.7103,      1333,
   13.7349,      1277,
   13.7594,      1349,
   13.7839,      1370,
   13.8085,      1239,
    13.833,      1287,
   13.8575,      1303,
   13.8821,      1166,
   13.9066,      1237,
   13.9311,      1216,
   13.9557,      1173,
   13.9802,      1221,
   14.0048,      1249,
   14.0293,      1175,
   14.0538,      1250,
   14.0784,      1175,
   14.1029,      1233,
   14.1274,      1182,
    14.152,      1182,
   14.1765,      1194,
    14.201,      1177,
   14.2256,      1173,
   14.2501,      1161,
   14.2747,      1200,
   14.2992,      1102,
   14.3237,      1239,
   14.3483,      1198,
   14.3728,      1168,
   14.3973,      1113,
   14.4219,      1200,
   14.4464,      1187,
   14.4709,      1142,
   14.4955,      1138,
     14.52,      1172,
   14.5446,      1138,
   14.5691,      1110,
   14.5936,      1135,
   14.6182,      1103,
   14.6427,      1135,
   14.6672,      1148,
   14.6918,      1120,
   14.7163,      1179,
   14.7408,      1109,
   14.7654,      1218,
   14.7899,      1179,
   14.8144,      1262,
    14.839,      1321,
   14.8635,      1381,
   14.8881,      1485,
   14.9126,      1621,
   14.9371,      1722,
   14.9617,      1744,
   14.9862,      1743,
   15.0107,      1707,
   15.0353,      1605,
   15.0598,      1531,
   15.0843,      1453,
   15.1089,      1267,
   15.1334,      1226,
    15.158,      1195,
   15.1825,      1171,
    15.207,      1096,
   15.2316,      1033,
   15.2561,      1082,
   15.2806,      1117,
   15.3052,      1067,
   15.3297,      1051,
   15.3542,       998,
   15.3788,      1015,
   15.4033,      1059,
   15.4279,      1038,
   15.4524,       965,
   15.4769,       972,
   15.5015,       931,
    15.526,       933,
   15.5505,       968,
   15.5751,       932,
   15.5996,       922,
   15.6241,       987,
   15.6487,       968,
   15.6732,       983,
   15.6977,       927,
   15.7223,       904,
   15.7468,       932,
   15.7714,       913,
   15.7959,       918,
   15.8204,       970,
    15.845,       901,
   15.8695,       958,
    15.894,       927,
   15.9186,       900,
   15.9431,       926,
   15.9676,       938,
   15.9922,       910,
   16.0167,       906,
   16.0413,       875,
   16.0658,       910,
   16.0903,       858,
   16.1149,       927,
   16.1394,       892,
   16.1639,       892,
   16.1885,       819,
    16.213,       869,
   16.2375,       824,
   16.2621,       891,
   16.2866,       900,
   16.3112,       918,
   16.3357,      1031,
   16.3602,      1089,
   16.3848,      1126,
   16.4093,      1078,
   16.4338,       975,
   16.4584,      1033,
   16.4829,       958,
   16.5074,       942,
    16.532,       875,
   16.5565,       884,
    16.581,       843,
   16.6056,       823,
   16.6301,       807,
   16.6547,       803,
   16.6792,       825,
   16.7037,       825,
   16.7283,       801,
   16.7528,       748,
   16.7773,       823,
   16.8019,       754,
   16.8264,       793,
   16.8509,       782,
   16.8755,       762,
      16.9,       785,
   16.9246,       793,
   16.9491,       774,
   16.9736,       772,
   16.9982,       818,
   17.0227,       747,
   17.0472,       789,
   17.0718,       795,
   17.0963,       734,
   17.1208,       786,
   17.1454,       756,
   17.1699,       817,
   17.1945,       817,
    17.219,       818,
   17.2435,       754,
   17.2681,       738,
   17.2926,       720,
   17.3171,       781,
   17.3417,       757,
   17.3662,       769,
   17.3907,       788,
   17.4153,       812,
   17.4398,       806,
   17.4643,       800,
   17.4889,       744,
   17.5134,       795,
    17.538,       869,
   17.5625,       769,
    17.587,       837,
   17.6116,       863,
   17.6361,       830,
   17.6606,       767,
   17.6852,       810,
   17.7097,       843,
   17.7342,       898,
   17.7588,       790,
   17.7833,       873,
   17.8079,       869,
   17.8324,       890,
   17.8569,      1057,
   17.8815,      1216,
    17.906,      1129,
   17.9305,      1002,
   17.9551,       957,
   17.9796,       977,
   18.0041,       992,
   18.0287,       943,
   18.0532,       843,
   18.0778,       778,
   18.1023,       795,
   18.1268,       809,
   18.1514,       798,
   18.1759,       778,
   18.2004,       825,
    18.225,       766,
   18.2495,       768,
    18.274,       753,
   18.2986,       749,
   18.3231,       732,
   18.3476,       690,
   18.3722,       683,
   18.3967,       772,
   18.4213,       781,
   18.4458,       721,
   18.4703,       703,
   18.4949,       763,
   18.5194,       711,
   18.5439,       773,
   18.5685,       771,
    18.593,       791,
   18.6175,       753,
   18.6421,       760,
   18.6666,       728,
   18.6912,       751,
   18.7157,       741,
   18.7402,       770,
   18.7648,       766,
   18.7893,       777,
   18.8138,       798,
   18.8384,       777,
   18.8629,       797,
   18.8874,       790,
    18.912,       755,
   18.9365,       766,
   18.9611,       800,
   18.9856,       760,
   19.0101,       738,
   19.0347,       819,
   19.0592,       756,
   19.0837,       735,
   19.1083,       756,
   19.1328,       755,
   19.1573,       759,
   19.1819,       773,
   19.2064,       804,
    19.231,       758,
   19.2555,       768,
     19.28,       855,
   19.3046,       867,
   19.3291,       807,
   19.3536,       770,
   19.3782,       826,
   19.4027,       803,
   19.4272,       851,
   19.4518,       863,
   19.4763,       871,
   19.5008,       978,
   19.5254,      1118,
   19.5499,      1058,
   19.5745,       927,
    19.599,       852,
   19.6235,       944,
   19.6481,       977,
   19.6726,       970,
   19.6971,       908,
   19.7217,       953,
   19.7462,       893,
   19.7707,       979,
   19.7953,      1055,
   19.8198,      1078,
   19.8444,      1121,
   19.8689,      1053,
   19.8934,       992,
    19.918,      1034,
   19.9425,       926,
    19.967,       906,
   19.9916,       839,
   20.0161,       856,
   20.0406,       838,
   20.0652,       742,
   20.0897,       740,
   20.1143,       763,
   20.1388,       721,
   20.1633,       731,
   20.1879,       739,
   20.2124,       724,
   20.2369,       730,
   20.2615,       718,
    20.286,       762,
   20.3105,       732,
   20.3351,       753,
   20.3596,       725,
   20.3841,       739,
   20.4087,       710,
   20.4332,       651,
   20.4578,       740,
   20.4823,       703,
   20.5068,       682,
   20.5314,       754,
   20.5559,       717,
   20.5804,       697,
    20.605,       695,
   20.6295,       707,
    20.654,       731,
   20.6786,       697,
   20.7031,       670,
   20.7277,       700,
   20.7522,       728,
   20.7767,       681,
   20.8013,       746,
   20.8258,       687,
   20.8503,       728,
   20.8749,       713,
   20.8994,       733,
   20.9239,       752,
   20.9485,       698,
    20.973,       658,
   20.9976,       751,
   21.0221,       716,
   21.0466,       721,
   21.0712,       692,
   21.0957,       733,
   21.1202,       742,
   21.1448,       713,
   21.1693,       676,
   21.1938,       806,
   21.2184,       810,
   21.2429,       918,
   21.2674,       870,
    21.292,       917,
   21.3165,       804,
   21.3411,       832,
   21.3656,       969,
   21.3901,      1107,
   21.4147,      1171,
   21.4392,       954,
   21.4637,       807,
   21.4883,       795,
   21.5128,       918,
   21.5373,       850,
   21.5619,       843,
   21.5864,       794,
    21.611,       686,
   21.6355,       744,
     21.66,       749,
   21.6846,       799,
   21.7091,       758,
   21.7336,       771,
   21.7582,       805,
   21.7827,       865,
   21.8072,      1040,
   21.8318,      1157,
   21.8563,      1069,
   21.8809,       933,
   21.9054,       863,
   21.9299,       892,
   21.9545,       919,
    21.979,       933,
   22.0035,       828,
   22.0281,       846,
   22.0526,       794,
   22.0771,       809,
   22.1017,       762,
   22.1262,       793,
   22.1507,       837,
   22.1753,       773,
   22.1998,       787,
   22.2244,       720,
   22.2489,       797,
   22.2734,       764,
    22.298,       766,
   22.3225,       764,
    22.347,       776,
   22.3716,       723,
   22.3961,       828,
   22.4206,       847,
   22.4452,       865,
   22.4697,       894,
   22.4943,       934,
   22.5188,       928,
   22.5433,       958,
   22.5679,       879,
   22.5924,       863,
   22.6169,       870,
   22.6415,       836,
    22.666,       805,
   22.6905,       776,
   22.7151,       749,
   22.7396,       717,
   22.7642,       756,
   22.7887,       765,
   22.8132,       702,
   22.8378,       749,
   22.8623,       729,
   22.8868,       693,
   22.9114,       704,
   22.9359,       640,
   22.9604,       701,
    22.985,       710,
   23.0095,       667,
    23.034,       642,
   23.0586,       701,
   23.0831,       702,
   23.1077,       662,
   23.1322,       657,
   23.1567,       683,
   23.1813,       662,
   23.2058,       710,
   23.2303,       636,
   23.2549,       623,
   23.2794,       678,
   23.3039,       666,
   23.3285,       672,
    23.353,       629,
   23.3776,       646,
   23.4021,       666,
   23.4266,       666,
   23.4512,       710,
   23.4757,       674,
   23.5002,       666,
   23.5248,       693,
   23.5493,       650,
   23.5738,       676,
   23.5984,       720,
   23.6229,       642,
   23.6475,       646,
    23.672,       645,
   23.6965,       667,
   23.7211,       632,
   23.7456,       686,
   23.7701,       626,
   23.7947,       699,
   23.8192,       655,
   23.8437,       695,
   23.8683,       673,
   23.8928,       729,
   23.9173,       705,
   23.9419,       611,
   23.9664,       691,
    23.991,       648,
   24.0155,       655,
     24.04,       680,
   24.0646,       698,
   24.0891,       646,
   24.1136,       664,
   24.1382,       697,
   24.1627,       673,
   24.1872,       723,
   24.2118,       676,
   24.2363,       663,
   24.2609,       701,
   24.2854,       685,
   24.3099,       674,
   24.3345,       628,
    24.359,       666,
   24.3835,       682,
   24.4081,       669,
   24.4326,       711,
   24.4571,       684,
   24.4817,       661,
   24.5062,       736,
   24.5308,       700,
   24.5553,       736,
   24.5798,       664,
   24.6044,       626,
   24.6289,       713,
   24.6534,       697,
    24.678,       689,
   24.7025,       705,
    24.727,       681,
   24.7516,       701,
   24.7761,       714,
   24.8006,       759,
   24.8252,       661,
   24.8497,       817,
   24.8743,       770,
   24.8988,       761,
   24.9233,       787,
   24.9479,       774,
   24.9724,       757,
   24.9969,       732,
   25.0215,       731,
    25.046,       760,
   25.0705,       737,
   25.0951,       796,
   25.1196,       765,
   25.1442,       769,
   25.1687,       758,
   25.1932,       779,
   25.2178,       776,
   25.2423,       740,
   25.2668,       760,
   25.2914,       737,
   25.3159,       735,
   25.3404,       755,
    25.365,       710,
   25.3895,       778,
   25.4141,       770,
   25.4386,       702,
   25.4631,       730,
   25.4877,       726,
   25.5122,       734,
   25.5367,       777,
   25.5613,       884,
   25.5858,       848,
   25.6103,       812,
   25.6349,       762,
   25.6594,       789,
   25.6839,       747,
   25.7085,       751,
    25.733,       778,
   25.7576,       795,
   25.7821,       741,
   25.8066,       739,
   25.8312,       739,
   25.8557,       750,
   25.8802,       709,
   25.9048,       730,
   25.9293,       682,
   25.9538,       714,
   25.9784,       689,
   26.0029,       711,
   26.0275,       680,
    26.052,       691,
   26.0765,       705,
   26.1011,       683,
   26.1256,       677,
   26.1501,       754,
   26.1747,       705,
   26.1992,       703,
   26.2237,       681,
   26.2483,       689,
   26.2728,       683,
   26.2974,       669,
   26.3219,       703,
   26.3464,       638,
    26.371,       715,
   26.3955,       808,
     26.42,       694,
   26.4446,       681,
   26.4691,       709,
   26.4936,       699,
   26.5182,       669,
   26.5427,       671,
   26.5673,       697,
   26.5918,       697,
   26.6163,       758,
   26.6409,       700,
   26.6654,       695,
   26.6899,       746,
   26.7145,       695,
    26.739,       740,
   26.7635,       732,
   26.7881,       768,
   26.8126,       722,
   26.8371,       742,
   26.8617,       729,
   26.8862,       786,
   26.9108,       790,
   26.9353,       873,
   26.9598,       829,
   26.9844,       813,
   27.0089,       752,
   27.0334,       818,
    27.058,       823,
   27.0825,       843,
    27.107,       834,
   27.1316,       760,
   27.1561,       759,
   27.1807,       796,
   27.2052,       758,
   27.2297,       835,
   27.2543,       767,
   27.2788,       746,
   27.3033,       737,
   27.3279,       722,
   27.3524,       724,
   27.3769,       729,
   27.4015,       751,
    27.426,       746,
   27.4506,       700,
   27.4751,       744,
   27.4996,       717,
   27.5242,       704,
   27.5487,       712,
   27.5732,       686,
   27.5978,       688,
   27.6223,       726,
   27.6468,       708,
   27.6714,       719,
   27.6959,       712,
   27.7204,       712,
    27.745,       752,
   27.7695,       752,
   27.7941,       774,
   27.8186,       743,
   27.8431,       742,
   27.8677,       760,
   27.8922,       790,
   27.9167,       760,
   27.9413,       723,
   27.9658,       722,
   27.9903,       675,
   28.0149,       689,
   28.0394,       735,
    28.064,       751,
   28.0885,       739,
    28.113,       715,
   28.1376,       744,
   28.1621,       749,
   28.1866,       716,
   28.2112,       659,
   28.2357,       696,
   28.2602,       741,
   28.2848,       718,
   28.3093,       722,
   28.3339,       744,
   28.3584,       727,
   28.3829,       741,
   28.4075,       708,
    28.432,       726,
   28.4565,       733,
   28.4811,       716,
   28.5056,       737,
   28.5301,       804,
   28.5547,       826,
   28.5792,       764,
   28.6037,       779,
   28.6283,       704,
   28.6528,       681,
   28.6774,       667,
   28.7019,       760,
   28.7264,       751,
    28.751,       752,
   28.7755,       716,
      28.8,       724,
   28.8246,       755,
   28.8491,       717,
   28.8736,       750,
   28.8982,       763,
   28.9227,       795,
   28.9473,       732,
   28.9718,       775,
   28.9963,       683,
   29.0209,       702,
   29.0454,       747,
   29.0699,       737,
   29.0945,       738,
    29.119,       701,
   29.1435,       732,
   29.1681,       717,
   29.1926,       672,
   29.2172,       653,
   29.2417,       719,
   29.2662,       679,
   29.2908,       660,
   29.3153,       652,
   29.3398,       660,
   29.3644,       700,
   29.3889,       661,
   29.4134,       667,
    29.438,       695,
   29.4625,       743,
    29.487,       710,
   29.5116,       636,
   29.5361,       694,
   29.5607,       701,
   29.5852,       697,
   29.6097,       727,
   29.6343,       669,
   29.6588,       654,
   29.6833,       768,
   29.7079,       682,
   29.7324,       678,
   29.7569,       688,
   29.7815,       630,
    29.806,       665,
   29.8306,       652,
   29.8551,       673,
   29.8796,       639,
   29.9042,       655,
   29.9287,       674,
   29.9532,       688,
   29.9778,       673,
   30.0023,       666,
   30.0268,       715,
   30.0514,       678,
   30.0759,       691,
   30.1005,       675,
    30.125,       658,
   30.1495,       731,
   30.1741,       727,
   30.1986,       694,
   30.2231,       724,
   30.2477,       666,
   30.2722,       719,
   30.2967,       734,
   30.3213,       726,
   30.3458,       719,
   30.3703,       664,
   30.3949,       691,
   30.4194,       716,
    30.444,       679,
   30.4685,       725,
    30.493,       662,
   30.5176,       687,
   30.5421,       672,
   30.5666,       694,
   30.5912,       686,
   30.6157,       689,
   30.6402,       705,
   30.6648,       696,
   30.6893,       691,
   30.7139,       661,
   30.7384,       672,
   30.7629,       696,
   30.7875,       647,
    30.812,       686,
   30.8365,       682,
   30.8611,       694,
   30.8856,       677,
   30.9101,       632,
   30.9347,       656,
   30.9592,       659,
   30.9838,       662,
   31.0083,       606,
   31.0328,       642,
   31.0574,       672,
   31.0819,       639,
   31.1064,       644,
    31.131,       622,
   31.1555,       655,
     31.18,       613,
   31.2046,       657,
   31.2291,       654,
   31.2536,       702,
   31.2782,       687,
   31.3027,       661,
   31.3273,       676,
   31.3518,       656,
   31.3763,       622,
   31.4009,       685,
   31.4254,       644,
   31.4499,       651,
   31.4745,       697,
    31.499,       649,
   31.5235,       636,
   31.5481,       667,
   31.5726,       678,
   31.5972,       650,
   31.6217,       690,
   31.6462,       716,
   31.6708,       714,
   31.6953,       683,
   31.7198,       686,
   31.7444,       689,
   31.7689,       701,
   31.7934,       685,
    31.818,       649,
   31.8425,       671,
   31.8671,       655,
   31.8916,       669,
   31.9161,       695,
   31.9407,       698,
   31.9652,       745,
   31.9897,       698,
   32.0143,       729,
   32.0388,       645,
   32.0633,       689,
   32.0879,       694,
   32.1124,       679,
   32.1369,       680,
   32.1615,       684,
    32.186,       669,
   32.2106,       669,
   32.2351,       666,
   32.2596,       635,
   32.2842,       626,
   32.3087,       653,
   32.3332,       622,
   32.3578,       589,
   32.3823,       666,
   32.4068,       635,
   32.4314,       647,
   32.4559,       606,
   32.4805,       645,
    32.505,       648,
   32.5295,       654,
   32.5541,       578,
   32.5786,       628,
   32.6031,       619,
   32.6277,       586,
   32.6522,       601,
   32.6767,       574,
   32.7013,       599,
   32.7258,       650,
   32.7504,       615,
   32.7749,       626,
   32.7994,       620,
    32.824,       598,
   32.8485,       598,
    32.873,       606,
   32.8976,       624,
   32.9221,       611,
   32.9466,       573,
   32.9712,       657,
   32.9957,       635,
   33.0203,       615,
   33.0448,       619,
   33.0693,       667,
   33.0939,       595,
   33.1184,       630,
   33.1429,       599,
   33.1675,       589,
    33.192,       652,
   33.2165,       611,
   33.2411,       594,
   33.2656,       623,
   33.2901,       631,
   33.3147,       606,
   33.3392,       597,
   33.3638,       649,
   33.3883,       631,
   33.4128,       680,
   33.4374,       610,
   33.4619,       590,
   33.4864,       596,
    33.511,       604,
   33.5355,       646,
     33.56,       618,
   33.5846,       614,
   33.6091,       564,
   33.6337,       607,
   33.6582,       599,
   33.6827,       574,
   33.7073,       628,
   33.7318,       603,
   33.7563,       602,
   33.7809,       566,
   33.8054,       572,
   33.8299,       589,
   33.8545,       573,
    33.879,       626,
   33.9036,       539,
   33.9281,       571,
   33.9526,       625,
   33.9772,       620,
   34.0017,       605,
   34.0262,       604,
   34.0508,       561,
   34.0753,       573,
   34.0998,       585,
   34.1244,       562,
   34.1489,       543,
   34.1734,       576,
    34.198,       617,
   34.2225,       595,
   34.2471,       610,
   34.2716,       584,
   34.2961,       606,
   34.3207,       586,
   34.3452,       580,
   34.3697,       608,
   34.3943,       597,
   34.4188,       552,
   34.4433,       577,
   34.4679,       587,
   34.4924,       561,
    34.517,       566,
   34.5415,       552,
    34.566,       574,
   34.5906,       572,
   34.6151,       573,
   34.6396,       548,
   34.6642,       571,
   34.6887,       596,
   34.7132,       599,
   34.7378,       547,
   34.7623,       595,
   34.7869,       564,
   34.8114,       619,
   34.8359,       591,
   34.8605,       599,
    34.885,       609,
   34.9095,       576,
   34.9341,       596,
   34.9586,       594,
   34.9831,       569,
   35.0077,       597,
   35.0322,       594,
   35.0567,       554,
   35.0813,       554,
   35.1058,       575,
   35.1304,       563,
   35.1549,       548,
   35.1794,       580,
    35.204,       558,
   35.2285,       553,
    35.253,       607,
   35.2776,       583,
   35.3021,       561,
   35.3266,       558,
   35.3512,       571,
   35.3757,       557,
   35.4003,       571,
   35.4248,       531,
   35.4493,       548,
   35.4739,       540,
   35.4984,       526,
   35.5229,       560,
   35.5475,       550,
    35.572,       531,
   35.5965,       541,
   35.6211,       576,
   35.6456,       580,
   35.6702,       569,
   35.6947,       576,
   35.7192,       537,
   35.7438,       528,
   35.7683,       531,
   35.7928,       572,
   35.8174,       617,
   35.8419,       572,
   35.8664,       532,
    35.891,       567,
   35.9155,       565,
     35.94,       550,
   35.9646,       554,
   35.9891,       539,
   36.0137,       526,
   36.0382,       589,
   36.0627,       564,
   36.0873,       572,
   36.1118,       552,
   36.1363,       553,
   36.1609,       544,
   36.1854,       573,
   36.2099,       574,
   36.2345,       538,
    36.259,       573,
   36.2836,       546,
   36.3081,       560,
   36.3326,       509,
   36.3572,       499,
   36.3817,       496,
   36.4062,       519,
   36.4308,       532,
   36.4553,       539,
   36.4798,       529,
   36.5044,       531,
   36.5289,       465,
   36.5535,       490,
    36.578,       456,
   36.6025,       505,
   36.6271,       519,
   36.6516,       488,
   36.6761,       504,
   36.7007,       519,
   36.7252,       497,
   36.7497,       513,
   36.7743,       507,
   36.7988,       499,
   36.8233,       518,
   36.8479,       510,
   36.8724,       474,
    36.897,       516,
   36.9215,       474,
    36.946,       494,
   36.9706,       468,
   36.9951,       443,
   37.0196,       495,
   37.0442,       482,
   37.0687,       461,
   37.0932,       479,
   37.1178,       441,
   37.1423,       421,
   37.1669,       508,
   37.1914,       489,
   37.2159,       494,
   37.2405,       489,
    37.265,       480,
   37.2895,       475,
   37.3141,       470,
   37.3386,       497,
   37.3631,       441,
   37.3877,       446,
   37.4122,       461,
   37.4368,       447,
   37.4613,       456,
   37.4858,       515,
   37.5104,       454,
   37.5349,       435,
   37.5594,       455,
    37.584,       471,
   37.6085,       471,
    37.633,       427,
   37.6576,       489,
   37.6821,       473,
   37.7066,       470,
   37.7312,       475,
   37.7557,       433,
   37.7803,       455,
   37.8048,       447,
   37.8293,       488,
   37.8539,       476,
   37.8784,       479,
   37.9029,       503,
   37.9275,       473,
    37.952,       467,
   37.9765,       418,
   38.0011,       484,
   38.0256,       427,
   38.0502,       437,
   38.0747,       487,
   38.0992,       427,
   38.1238,       456,
   38.1483,       466,
   38.1728,       480,
   38.1974,       474,
   38.2219,       457,
   38.2464,       448,
    38.271,       465,
   38.2955,       462,
   38.3201,       469,
   38.3446,       454,
   38.3691,       417,
   38.3937,       443,
   38.4182,       458,
   38.4427,       426,
   38.4673,       475,
   38.4918,       373,
   38.5163,       408,
   38.5409,       404,
   38.5654,       463,
   38.5899,       462,
   38.6145,       431,
    38.639,       409,
   38.6636,       446,
   38.6881,       454,
   38.7126,       399,
   38.7372,       464,
   38.7617,       436,
   38.7862,       414,
   38.8108,       434,
   38.8353,       423,
   38.8598,       445,
   38.8844,       416,
   38.9089,       452,
   38.9335,       434,
    38.958,       481,
   38.9825,       464,
   39.0071,       398,
   39.0316,       430,
   39.0561,       447,
   39.0807,       459,
   39.1052,       461,
   39.1297,       453,
   39.1543,       416,
   39.1788,       466,
   39.2034,       418,
   39.2279,       476,
   39.2524,       445,
    39.277,       473,
   39.3015,       449,
    39.326,       469,
   39.3506,       455,
   39.3751,       449,
   39.3996,       451,
   39.4242,       474,
   39.4487,       447,
   39.4732,       477,
   39.4978,       503,
   39.5223,       482,
   39.5469,       497,
   39.5714,       482,
   39.5959,       514,
   39.6205,       526,
    39.645,       502,
   39.6695,       497,
   39.6941,       457,
   39.7186,       482,
   39.7431,       519,
   39.7677,       468,
   39.7922,       459,
   39.8168,       453,
   39.8413,       458,
   39.8658,       476,
   39.8904,       513,
   39.9149,       523,
   39.9394,       473,
    39.964,       461,
   39.9885,       488,
