;RAW4.00
[RawHeader]
Date=11/29/2021
EstimatedTotalTime=648.79
FurtherDQLReading=0
HardwareIndicator=65519
MeasuredTotalTime=648.79
MeasurementFlag=1
NumberOfMeasuredRanges=1
NumberOfRanges=1
Time=11:02:22

[VarInfo]
Type=USER
Flags=0
Value=Lab Manager

[VarInfo]
Type=SAMPLEID
Flags=0
Value=

[VarInfo]
Type=COMMENT
Flags=0
Value=

[VarInfo]
Type=UTF
Flags=0
Value=

[VarInfo]
Type=CREATOR
Flags=0
Value=BrmlToV4Converter

[VarInfo]
Type=CREATOR_VERSION
Flags=0
Value=7.3.1.0

[HardwareConfiguration]
AbsorptionFactor=9999
ActivateAbsorber=0
Alpha1=0.7093
Alpha2=0.71359
AlphaAverage=0.71073
AlphaRatio=0.5
Analyzer=0
Anode=Mo
AntiScatteringSlit=18
BeamOpticsFlags=0
Beta=0.63229
BetaRelativeIntensity=0
DeactivateAbsorber=0
DetectorSlit=9999
DivergenceSlit=0.2
GoniometerControl=0
GoniometerDiameter=560
GoniometerModel=512
GoniometerStage=7
Monochromator=0
NearSampleSlit=9999
PrimarySollerSlit=2.5
SampleChanger=0
SecondSollerSlit=9999
SynchronousAxis=0
ThinFilmAttachment=9999
WaveUnit=A

[RangeHeader]
ActuallyUsedLambda=0.71073
AdditionalDetectorMask=257
DataRecordLength=4
DelayTime=0
DisplayPlaneNumber=0
EstimatedScanTime=649
ExtraParametersMask=0
GeneratorCurrent=40
GeneratorVoltage=50
Increment=0.0245361
Increment3=0
NumberOfCompletedData=1427
NumberOfCounts=1
NumberOfDetectors=0
NumberOfDrives=2
NumberOfEncoderDrives=0
NumberOfMeasuredData=1427
NumberOfVaryingParameters=0
RangeStartTime=0
RotationSpeed=60
ScanMode=1
ScanType=Locked Coupled
SimulatedMeasConditions=0
SlitChangerIn=0
SmootingWidth=0
Start=5
Steps=1427
SynchronousRotation=0
Time=76.8

[VarInfo]
Type=PSD_DISCRIM
Flags=0
Value=0.488;0.518

[PSD]
ActualTwoTheta=9999
FirstUsedChannel=0
FixedPSD=0
PSDOpening=2.94433
PSDType=5

[Drive]
DriveFlags=1
DriveName=2Theta
DriveNumber=2
DriveOffset=0
OffsetIndex=0
OscillationAmplitude=0
OscillationSpeed=0
StartPosition=5

[Drive]
DriveFlags=1
DriveName=Theta
DriveNumber=1
DriveOffset=0
OffsetIndex=0
OscillationAmplitude=0
OscillationSpeed=0
StartPosition=2.5

[Data]
     Angle,       PSD,
         5,      1384,
   5.02454,      1302,
   5.04907,      1284,
   5.07361,      1353,
   5.09814,      1186,
   5.12268,      1402,
   5.14722,      1261,
   5.17175,      1336,
   5.19629,      1339,
   5.22083,      1234,
   5.24536,      1359,
    5.2699,      1249,
   5.29443,      1313,
   5.31897,      1351,
   5.34351,      1228,
   5.36804,      1330,
   5.39258,      1220,
   5.41711,      1253,
   5.44165,      1388,
   5.46619,      1178,
   5.49072,      1397,
   5.51526,      1207,
   5.53979,      1302,
   5.56433,      1276,
   5.58887,      1100,
    5.6134,      1340,
   5.63794,      1169,
   5.66248,      1291,
   5.68701,      1274,
   5.71155,      1092,
   5.73608,      1315,
   5.76062,      1122,
   5.78516,      1209,
   5.80969,      1199,
   5.83423,      1097,
   5.85876,      1240,
    5.8833,      1115,
   5.90784,      1176,
   5.93237,      1222,
   5.95691,      1028,
   5.98144,      1171,
   6.00598,      1085,
   6.03052,      1077,
   6.05505,      1219,
   6.07959,      1009,
   6.10413,      1136,
   6.12866,      1061,
    6.1532,      1124,
   6.17773,      1157,
   6.20227,       992,
   6.22681,      1139,
   6.25134,      1031,
   6.27588,      1126,
   6.30041,      1070,
   6.32495,       918,
   6.34949,      1161,
   6.37402,       916,
   6.39856,      1015,
    6.4231,      1102,
   6.44763,       954,
   6.47217,      1039,
    6.4967,      1067,
   6.52124,      1013,
   6.54578,      1021,
   6.57031,       905,
   6.59485,      1047,
   6.61938,       957,
   6.64392,      1014,
   6.66846,      1024,
   6.69299,       934,
   6.71753,       996,
   6.74206,       936,
    6.7666,      1030,
   6.79114,       975,
   6.81567,       908,
   6.84021,       986,
   6.86475,       930,
   6.88928,       924,
   6.91382,       989,
   6.93835,       846,
   6.96289,       998,
   6.98743,       914,
   7.01196,       931,
    7.0365,       874,
   7.06103,       803,
   7.08557,       921,
   7.11011,       840,
   7.13464,       906,
   7.15918,       983,
   7.18371,       827,
   7.20825,       948,
   7.23279,       872,
   7.25732,       871,
   7.28186,       893,
    7.3064,       887,
   7.33093,       944,
   7.35547,       861,
      7.38,       869,
   7.40454,       859,
   7.42908,       859,
   7.45361,       867,
   7.47815,       804,
   7.50268,       884,
   7.52722,       928,
   7.55176,       772,
   7.57629,       870,
   7.60083,       863,
   7.62536,       816,
    7.6499,       875,
   7.67444,       785,
   7.69897,       928,
   7.72351,       849,
   7.74805,       851,
   7.77258,       826,
   7.79712,       715,
   7.82165,       785,
   7.84619,       682,
   7.87073,       718,
   7.89526,       801,
    7.9198,       589,
   7.94433,       775,
   7.96887,       669,
   7.99341,       646,
   8.01794,       690,
   8.04248,       617,
   8.06702,       623,
   8.09155,       634,
   8.11609,       646,
   8.14062,       613,
   8.16516,       547,
    8.1897,       637,
   8.21423,       580,
   8.23877,       628,
    8.2633,       643,
   8.28784,       576,
   8.31238,       692,
   8.33691,       581,
   8.36145,       621,
   8.38598,       667,
   8.41052,       520,
   8.43506,       687,
   8.45959,       604,
   8.48413,       599,
   8.50867,       648,
    8.5332,       538,
   8.55774,       642,
   8.58227,       553,
   8.60681,       610,
   8.63135,       638,
   8.65588,       589,
   8.68042,       682,
   8.70495,       607,
   8.72949,       625,
   8.75403,       629,
   8.77856,       528,
    8.8031,       659,
   8.82763,       597,
   8.85217,       629,
   8.87671,       637,
   8.90124,       561,
   8.92578,       667,
   8.95032,       618,
   8.97485,       616,
   8.99939,       633,
   9.02392,       569,
   9.04846,       717,
     9.073,       566,
   9.09753,       599,
   9.12207,       628,
    9.1466,       564,
   9.17114,       676,
   9.19568,       588,
   9.22021,       670,
   9.24475,       737,
   9.26929,       527,
   9.29382,       749,
   9.31836,       590,
   9.34289,       650,
   9.36743,       749,
   9.39197,       664,
    9.4165,       823,
   9.44104,       666,
   9.46557,       743,
   9.49011,       778,
   9.51465,       695,
   9.53918,       813,
   9.56372,       807,
   9.58825,       842,
   9.61279,       874,
   9.63733,       804,
   9.66186,       912,
    9.6864,       876,
   9.71094,       956,
   9.73547,      1016,
   9.76001,       958,
   9.78454,      1001,
   9.80908,       937,
   9.83362,       920,
   9.85815,       954,
   9.88269,       942,
   9.90722,      1032,
   9.93176,       887,
    9.9563,       957,
   9.98083,      1015,
   10.0054,      1009,
   10.0299,      1061,
   10.0544,      1005,
    10.079,      1025,
   10.1035,      1120,
    10.128,      1044,
   10.1526,      1169,
   10.1771,      1075,
   10.2017,      1085,
   10.2262,      1133,
   10.2507,      1091,
   10.2753,      1197,
   10.2998,      1262,
   10.3243,      1228,
   10.3489,      1171,
   10.3734,      1222,
   10.3979,      1320,
   10.4225,      1205,
    10.447,      1230,
   10.4716,      1274,
   10.4961,      1212,
   10.5206,      1244,
   10.5452,      1267,
   10.5697,      1304,
   10.5942,      1348,
   10.6188,      1371,
   10.6433,      1384,
   10.6678,      1411,
   10.6924,      1359,
   10.7169,      1447,
   10.7415,      1385,
    10.766,      1375,
   10.7905,      1380,
   10.8151,      1291,
   10.8396,      1399,
   10.8641,      1371,
   10.8887,      1395,
   10.9132,      1417,
   10.9377,      1419,
   10.9623,      1478,
   10.9868,      1368,
   11.0113,      1338,
   11.0359,      1464,
   11.0604,      1470,
    11.085,      1437,
   11.1095,      1482,
    11.134,      1548,
   11.1586,      1429,
   11.1831,      1477,
   11.2076,      1449,
   11.2322,      1511,
   11.2567,      1552,
   11.2812,      1542,
   11.3058,      1568,
   11.3303,      1678,
   11.3549,      1640,
   11.3794,      1849,
   11.4039,      1824,
   11.4285,      1927,
    11.453,      2091,
   11.4775,      2173,
   11.5021,      2220,
   11.5266,      2147,
   11.5511,      1911,
   11.5757,      2010,
   11.6002,      1779,
   11.6248,      1718,
   11.6493,      1695,
   11.6738,      1551,
   11.6984,      1530,
   11.7229,      1508,
   11.7474,      1592,
    11.772,      1511,
   11.7965,      1486,
    11.821,      1521,
   11.8456,      1495,
   11.8701,      1571,
   11.8946,      1529,
   11.9192,      1476,
   11.9437,      1454,
   11.9683,      1472,
   11.9928,      1389,
   12.0173,      1521,
   12.0419,      1493,
   12.0664,      1483,
   12.0909,      1387,
   12.1155,      1527,
     12.14,      1511,
   12.1645,      1452,
   12.1891,      1553,
   12.2136,      1478,
   12.2382,      1570,
   12.2627,      1546,
   12.2872,      1608,
   12.3118,      1662,
   12.3363,      1847,
   12.3608,      1972,
   12.3854,      2087,
   12.4099,      2268,
   12.4344,      2420,
    12.459,      2581,
   12.4835,      2572,
   12.5081,      2516,
   12.5326,      2343,
   12.5571,      2135,
   12.5817,      2014,
   12.6062,      1798,
   12.6307,      1752,
   12.6553,      1588,
   12.6798,      1564,
   12.7043,      1506,
   12.7289,      1475,
   12.7534,      1456,
    12.778,      1456,
   12.8025,      1492,
    12.827,      1456,
   12.8516,      1642,
   12.8761,      1612,
   12.9006,      1459,
   12.9252,      1444,
   12.9497,      1503,
   12.9742,      1429,
   12.9988,      1427,
   13.0233,      1377,
   13.0478,      1393,
   13.0724,      1320,
   13.0969,      1347,
   13.1215,      1379,
    13.146,      1302,
   13.1705,      1350,
   13.1951,      1268,
   13.2196,      1345,
   13.2441,      1359,
   13.2687,      1329,
   13.2932,      1281,
   13.3177,      1327,
   13.3423,      1372,
   13.3668,      1429,
   13.3914,      1401,
   13.4159,      1483,
   13.4404,      1671,
    13.465,      1823,
   13.4895,      2253,
    13.514,      2276,
   13.5386,      2220,
   13.5631,      2208,
   13.5876,      2073,
   13.6122,      1804,
   13.6367,      1620,
   13.6613,      1496,
   13.6858,      1368,
   13.7103,      1307,
   13.7349,      1261,
   13.7594,      1221,
   13.7839,      1268,
   13.8085,      1294,
    13.833,      1302,
   13.8575,      1219,
   13.8821,      1211,
   13.9066,      1243,
   13.9311,      1220,
   13.9557,      1250,
   13.9802,      1162,
   14.0048,      1185,
   14.0293,      1132,
   14.0538,      1159,
   14.0784,      1140,
   14.1029,      1151,
   14.1274,      1174,
    14.152,      1118,
   14.1765,      1248,
    14.201,      1119,
   14.2256,      1095,
   14.2501,      1171,
   14.2747,      1149,
   14.2992,      1104,
   14.3237,      1112,
   14.3483,      1146,
   14.3728,      1182,
   14.3973,      1159,
   14.4219,      1138,
   14.4464,      1269,
   14.4709,      1212,
   14.4955,      1190,
     14.52,      1197,
   14.5446,      1201,
   14.5691,      1175,
   14.5936,      1164,
   14.6182,      1118,
   14.6427,      1136,
   14.6672,      1162,
   14.6918,      1220,
   14.7163,      1150,
   14.7408,      1168,
   14.7654,      1092,
   14.7899,      1181,
   14.8144,      1232,
    14.839,      1217,
   14.8635,      1296,
   14.8881,      1371,
   14.9126,      1452,
   14.9371,      1576,
   14.9617,      1714,
   14.9862,      1868,
   15.0107,      1969,
   15.0353,      2044,
   15.0598,      1996,
   15.0843,      1865,
   15.1089,      1847,
   15.1334,      1638,
    15.158,      1610,
   15.1825,      1431,
    15.207,      1311,
   15.2316,      1208,
   15.2561,      1201,
   15.2806,      1096,
   15.3052,      1111,
   15.3297,      1067,
   15.3542,       996,
   15.3788,      1037,
   15.4033,      1044,
   15.4279,      1066,
   15.4524,      1025,
   15.4769,      1063,
   15.5015,      1019,
    15.526,       994,
   15.5505,       979,
   15.5751,       938,
   15.5996,       906,
   15.6241,       953,
   15.6487,       895,
   15.6732,       889,
   15.6977,       976,
   15.7223,       882,
   15.7468,       903,
   15.7714,       898,
   15.7959,       894,
   15.8204,       929,
    15.845,       900,
   15.8695,       943,
    15.894,       892,
   15.9186,       892,
   15.9431,       853,
   15.9676,       867,
   15.9922,       881,
   16.0167,       946,
   16.0413,       856,
   16.0658,       872,
   16.0903,       882,
   16.1149,       844,
   16.1394,       860,
   16.1639,       840,
   16.1885,       862,
    16.213,       833,
   16.2375,       888,
   16.2621,       860,
   16.2866,       847,
   16.3112,       881,
   16.3357,       861,
   16.3602,       892,
   16.3848,       872,
   16.4093,       933,
   16.4338,       927,
   16.4584,       956,
   16.4829,       935,
   16.5074,       885,
    16.532,       883,
   16.5565,       942,
    16.581,       829,
   16.6056,       812,
   16.6301,       787,
   16.6547,       798,
   16.6792,       810,
   16.7037,       781,
   16.7283,       795,
   16.7528,       776,
   16.7773,       791,
   16.8019,       775,
   16.8264,       778,
   16.8509,       763,
   16.8755,       763,
      16.9,       755,
   16.9246,       795,
   16.9491,       732,
   16.9736,       782,
   16.9982,       767,
   17.0227,       794,
   17.0472,       729,
   17.0718,       794,
   17.0963,       780,
   17.1208,       754,
   17.1454,       792,
   17.1699,       753,
   17.1945,       776,
    17.219,       775,
   17.2435,       756,
   17.2681,       748,
   17.2926,       753,
   17.3171,       751,
   17.3417,       743,
   17.3662,       756,
   17.3907,       780,
   17.4153,       733,
   17.4398,       762,
   17.4643,       753,
   17.4889,       756,
   17.5134,       762,
    17.538,       770,
   17.5625,       793,
    17.587,       773,
   17.6116,       776,
   17.6361,       829,
   17.6606,       768,
   17.6852,       880,
   17.7097,       852,
   17.7342,       892,
   17.7588,       846,
   17.7833,       868,
   17.8079,       880,
   17.8324,       891,
   17.8569,       827,
   17.8815,       797,
    17.906,       921,
   17.9305,       870,
   17.9551,       990,
   17.9796,       960,
   18.0041,       894,
   18.0287,       930,
   18.0532,       852,
   18.0778,       929,
   18.1023,       801,
   18.1268,       842,
   18.1514,       778,
   18.1759,       761,
   18.2004,       814,
    18.225,       768,
   18.2495,       746,
    18.274,       754,
   18.2986,       749,
   18.3231,       808,
   18.3476,       779,
   18.3722,       764,
   18.3967,       769,
   18.4213,       752,
   18.4458,       795,
   18.4703,       743,
   18.4949,       742,
   18.5194,       735,
   18.5439,       774,
   18.5685,       805,
    18.593,       784,
   18.6175,       772,
   18.6421,       695,
   18.6666,       753,
   18.6912,       742,
   18.7157,       717,
   18.7402,       755,
   18.7648,       747,
   18.7893,       689,
   18.8138,       724,
   18.8384,       701,
   18.8629,       744,
   18.8874,       734,
    18.912,       792,
   18.9365,       747,
   18.9611,       726,
   18.9856,       744,
   19.0101,       748,
   19.0347,       781,
   19.0592,       782,
   19.0837,       775,
   19.1083,       794,
   19.1328,       743,
   19.1573,       775,
   19.1819,       765,
   19.2064,       749,
    19.231,       712,
   19.2555,       747,
     19.28,       822,
   19.3046,       770,
   19.3291,       798,
   19.3536,       868,
   19.3782,       811,
   19.4027,       804,
   19.4272,       892,
   19.4518,       845,
   19.4763,       873,
   19.5008,       821,
   19.5254,       852,
   19.5499,       913,
   19.5745,       977,
    19.599,       891,
   19.6235,       940,
   19.6481,       886,
   19.6726,       868,
   19.6971,       921,
   19.7217,       882,
   19.7462,       946,
   19.7707,       956,
   19.7953,      1055,
   19.8198,      1124,
   19.8444,      1181,
   19.8689,      1292,
   19.8934,      1268,
    19.918,      1312,
   19.9425,      1299,
    19.967,      1188,
   19.9916,      1218,
   20.0161,      1111,
   20.0406,      1055,
   20.0652,       959,
   20.0897,       890,
   20.1143,       891,
   20.1388,       837,
   20.1633,       795,
   20.1879,       735,
   20.2124,       782,
   20.2369,       795,
   20.2615,       691,
    20.286,       716,
   20.3105,       723,
   20.3351,       708,
   20.3596,       700,
   20.3841,       694,
   20.4087,       696,
   20.4332,       661,
   20.4578,       694,
   20.4823,       722,
   20.5068,       713,
   20.5314,       757,
   20.5559,       744,
   20.5804,       731,
    20.605,       758,
   20.6295,       755,
    20.654,       685,
   20.6786,       710,
   20.7031,       729,
   20.7277,       707,
   20.7522,       714,
   20.7767,       693,
   20.8013,       701,
   20.8258,       734,
   20.8503,       684,
   20.8749,       680,
   20.8994,       703,
   20.9239,       687,
   20.9485,       704,
    20.973,       685,
   20.9976,       683,
   21.0221,       695,
   21.0466,       700,
   21.0712,       670,
   21.0957,       697,
   21.1202,       721,
   21.1448,       676,
   21.1693,       718,
   21.1938,       718,
   21.2184,       686,
   21.2429,       758,
   21.2674,       759,
    21.292,       801,
   21.3165,       804,
   21.3411,       808,
   21.3656,       721,
   21.3901,       759,
   21.4147,       819,
   21.4392,       824,
   21.4637,       900,
   21.4883,       925,
   21.5128,       818,
   21.5373,       791,
   21.5619,       804,
   21.5864,       809,
    21.611,       766,
   21.6355,       788,
     21.66,       764,
   21.6846,       730,
   21.7091,       799,
   21.7336,       746,
   21.7582,       785,
   21.7827,       683,
   21.8072,       732,
   21.8318,       720,
   21.8563,       803,
   21.8809,       853,
   21.9054,       923,
   21.9299,       868,
   21.9545,       876,
    21.979,       845,
   22.0035,       859,
   22.0281,       858,
   22.0526,       857,
   22.0771,       878,
   22.1017,       859,
   22.1262,       883,
   22.1507,       894,
   22.1753,       819,
   22.1998,       850,
   22.2244,       788,
   22.2489,       819,
   22.2734,       826,
    22.298,       795,
   22.3225,       845,
    22.347,       800,
   22.3716,       761,
   22.3961,       853,
   22.4206,       818,
   22.4452,       860,
   22.4697,       930,
   22.4943,      1023,
   22.5188,      1071,
   22.5433,      1072,
   22.5679,      1160,
   22.5924,      1071,
   22.6169,      1080,
   22.6415,      1044,
    22.666,      1044,
   22.6905,       949,
   22.7151,       941,
   22.7396,       926,
   22.7642,       845,
   22.7887,       821,
   22.8132,       786,
   22.8378,       729,
   22.8623,       672,
   22.8868,       740,
   22.9114,       679,
   22.9359,       661,
   22.9604,       682,
    22.985,       708,
   23.0095,       689,
    23.034,       709,
   23.0586,       694,
   23.0831,       698,
   23.1077,       630,
   23.1322,       618,
   23.1567,       681,
   23.1813,       674,
   23.2058,       663,
   23.2303,       648,
   23.2549,       644,
   23.2794,       653,
   23.3039,       704,
   23.3285,       660,
    23.353,       618,
   23.3776,       648,
   23.4021,       646,
   23.4266,       660,
   23.4512,       665,
   23.4757,       677,
   23.5002,       689,
   23.5248,       619,
   23.5493,       631,
   23.5738,       621,
   23.5984,       634,
   23.6229,       662,
   23.6475,       632,
    23.672,       631,
   23.6965,       687,
   23.7211,       655,
   23.7456,       677,
   23.7701,       616,
   23.7947,       646,
   23.8192,       693,
   23.8437,       666,
   23.8683,       675,
   23.8928,       671,
   23.9173,       683,
   23.9419,       669,
   23.9664,       624,
    23.991,       664,
   24.0155,       701,
     24.04,       684,
   24.0646,       637,
   24.0891,       668,
   24.1136,       679,
   24.1382,       658,
   24.1627,       609,
   24.1872,       651,
   24.2118,       641,
   24.2363,       649,
   24.2609,       654,
   24.2854,       670,
   24.3099,       690,
   24.3345,       693,
    24.359,       598,
   24.3835,       693,
   24.4081,       672,
   24.4326,       621,
   24.4571,       692,
   24.4817,       706,
   24.5062,       661,
   24.5308,       658,
   24.5553,       660,
   24.5798,       735,
   24.6044,       667,
   24.6289,       699,
   24.6534,       635,
    24.678,       674,
   24.7025,       722,
    24.727,       741,
   24.7516,       742,
   24.7761,       703,
   24.8006,       718,
   24.8252,       694,
   24.8497,       728,
   24.8743,       754,
   24.8988,       831,
   24.9233,       820,
   24.9479,       806,
   24.9724,       841,
   24.9969,       866,
   25.0215,       813,
    25.046,       836,
   25.0705,       814,
   25.0951,       839,
   25.1196,       847,
   25.1442,       817,
   25.1687,       757,
   25.1932,       752,
   25.2178,       695,
   25.2423,       746,
   25.2668,       801,
   25.2914,       743,
   25.3159,       731,
   25.3404,       700,
    25.365,       724,
   25.3895,       710,
   25.4141,       710,
   25.4386,       740,
   25.4631,       746,
   25.4877,       739,
   25.5122,       781,
   25.5367,       715,
   25.5613,       667,
   25.5858,       728,
   25.6103,       756,
   25.6349,       758,
   25.6594,       777,
   25.6839,       784,
   25.7085,       789,
    25.733,       723,
   25.7576,       738,
   25.7821,       717,
   25.8066,       716,
   25.8312,       751,
   25.8557,       742,
   25.8802,       707,
   25.9048,       706,
   25.9293,       688,
   25.9538,       737,
   25.9784,       709,
   26.0029,       691,
   26.0275,       660,
    26.052,       643,
   26.0765,       731,
   26.1011,       694,
   26.1256,       626,
   26.1501,       657,
   26.1747,       709,
   26.1992,       668,
   26.2237,       710,
   26.2483,       652,
   26.2728,       674,
   26.2974,       670,
   26.3219,       644,
   26.3464,       696,
    26.371,       676,
   26.3955,       694,
     26.42,       676,
   26.4446,       676,
   26.4691,       655,
   26.4936,       678,
   26.5182,       703,
   26.5427,       715,
   26.5673,       775,
   26.5918,       701,
   26.6163,       715,
   26.6409,       647,
   26.6654,       673,
   26.6899,       703,
   26.7145,       733,
    26.739,       631,
   26.7635,       689,
   26.7881,       754,
   26.8126,       715,
   26.8371,       764,
   26.8617,       747,
   26.8862,       695,
   26.9108,       699,
   26.9353,       715,
   26.9598,       782,
   26.9844,       790,
   27.0089,       792,
   27.0334,       772,
    27.058,       740,
   27.0825,       736,
    27.107,       715,
   27.1316,       775,
   27.1561,       736,
   27.1807,       692,
   27.2052,       749,
   27.2297,       710,
   27.2543,       689,
   27.2788,       787,
   27.3033,       741,
   27.3279,       748,
   27.3524,       766,
   27.3769,       683,
   27.4015,       684,
    27.426,       723,
   27.4506,       707,
   27.4751,       707,
   27.4996,       695,
   27.5242,       730,
   27.5487,       716,
   27.5732,       686,
   27.5978,       721,
   27.6223,       658,
   27.6468,       650,
   27.6714,       710,
   27.6959,       687,
   27.7204,       691,
    27.745,       714,
   27.7695,       711,
   27.7941,       698,
   27.8186,       703,
   27.8431,       760,
   27.8677,       700,
   27.8922,       740,
   27.9167,       726,
   27.9413,       705,
   27.9658,       719,
   27.9903,       699,
   28.0149,       725,
   28.0394,       747,
    28.064,       700,
   28.0885,       686,
    28.113,       715,
   28.1376,       728,
   28.1621,       698,
   28.1866,       698,
   28.2112,       679,
   28.2357,       690,
   28.2602,       691,
   28.2848,       706,
   28.3093,       629,
   28.3339,       714,
   28.3584,       679,
   28.3829,       747,
   28.4075,       696,
    28.432,       678,
   28.4565,       736,
   28.4811,       683,
   28.5056,       709,
   28.5301,       718,
   28.5547,       686,
   28.5792,       704,
   28.6037,       731,
   28.6283,       765,
   28.6528,       720,
   28.6774,       711,
   28.7019,       680,
   28.7264,       670,
    28.751,       717,
   28.7755,       747,
      28.8,       724,
   28.8246,       709,
   28.8491,       722,
   28.8736,       731,
   28.8982,       705,
   28.9227,       691,
   28.9473,       727,
   28.9718,       710,
   28.9963,       741,
   29.0209,       681,
   29.0454,       655,
   29.0699,       733,
   29.0945,       700,
    29.119,       667,
   29.1435,       705,
   29.1681,       709,
   29.1926,       661,
   29.2172,       720,
   29.2417,       686,
   29.2662,       738,
   29.2908,       739,
   29.3153,       672,
   29.3398,       706,
   29.3644,       676,
   29.3889,       664,
   29.4134,       659,
    29.438,       685,
   29.4625,       644,
    29.487,       641,
   29.5116,       668,
   29.5361,       703,
   29.5607,       718,
   29.5852,       662,
   29.6097,       679,
   29.6343,       681,
   29.6588,       636,
   29.6833,       690,
   29.7079,       739,
   29.7324,       659,
   29.7569,       663,
   29.7815,       638,
    29.806,       648,
   29.8306,       684,
   29.8551,       654,
   29.8796,       623,
   29.9042,       656,
   29.9287,       689,
   29.9532,       631,
   29.9778,       654,
   30.0023,       693,
   30.0268,       605,
   30.0514,       659,
   30.0759,       671,
   30.1005,       696,
    30.125,       658,
   30.1495,       691,
   30.1741,       654,
   30.1986,       682,
   30.2231,       720,
   30.2477,       671,
   30.2722,       638,
   30.2967,       659,
   30.3213,       679,
   30.3458,       710,
   30.3703,       672,
   30.3949,       701,
   30.4194,       691,
    30.444,       675,
   30.4685,       653,
    30.493,       671,
   30.5176,       657,
   30.5421,       638,
   30.5666,       671,
   30.5912,       648,
   30.6157,       666,
   30.6402,       689,
   30.6648,       692,
   30.6893,       690,
   30.7139,       640,
   30.7384,       713,
   30.7629,       648,
   30.7875,       656,
    30.812,       632,
   30.8365,       629,
   30.8611,       674,
   30.8856,       671,
   30.9101,       620,
   30.9347,       695,
   30.9592,       645,
   30.9838,       677,
   31.0083,       658,
   31.0328,       678,
   31.0574,       631,
   31.0819,       666,
   31.1064,       653,
    31.131,       631,
   31.1555,       655,
     31.18,       693,
   31.2046,       596,
   31.2291,       608,
   31.2536,       673,
   31.2782,       621,
   31.3027,       653,
   31.3273,       633,
   31.3518,       681,
   31.3763,       674,
   31.4009,       636,
   31.4254,       672,
   31.4499,       651,
   31.4745,       722,
    31.499,       684,
   31.5235,       685,
   31.5481,       620,
   31.5726,       669,
   31.5972,       700,
   31.6217,       734,
   31.6462,       702,
   31.6708,       660,
   31.6953,       679,
   31.7198,       684,
   31.7444,       677,
   31.7689,       636,
   31.7934,       698,
    31.818,       676,
   31.8425,       656,
   31.8671,       641,
   31.8916,       715,
   31.9161,       663,
   31.9407,       675,
   31.9652,       670,
   31.9897,       676,
   32.0143,       661,
   32.0388,       666,
   32.0633,       678,
   32.0879,       740,
   32.1124,       653,
   32.1369,       655,
   32.1615,       712,
    32.186,       686,
   32.2106,       652,
   32.2351,       720,
   32.2596,       640,
   32.2842,       688,
   32.3087,       650,
   32.3332,       663,
   32.3578,       624,
   32.3823,       641,
   32.4068,       637,
   32.4314,       615,
   32.4559,       681,
   32.4805,       621,
    32.505,       596,
   32.5295,       607,
   32.5541,       630,
   32.5786,       590,
   32.6031,       604,
   32.6277,       580,
   32.6522,       609,
   32.6767,       610,
   32.7013,       569,
   32.7258,       603,
   32.7504,       651,
   32.7749,       582,
   32.7994,       609,
    32.824,       606,
   32.8485,       555,
    32.873,       600,
   32.8976,       575,
   32.9221,       581,
   32.9466,       617,
   32.9712,       619,
   32.9957,       610,
   33.0203,       611,
   33.0448,       624,
   33.0693,       624,
   33.0939,       639,
   33.1184,       608,
   33.1429,       600,
   33.1675,       682,
    33.192,       521,
   33.2165,       602,
   33.2411,       617,
   33.2656,       612,
   33.2901,       581,
   33.3147,       639,
   33.3392,       626,
   33.3638,       581,
   33.3883,       644,
   33.4128,       654,
   33.4374,       567,
   33.4619,       622,
   33.4864,       606,
    33.511,       617,
   33.5355,       615,
     33.56,       624,
   33.5846,       564,
   33.6091,       574,
   33.6337,       587,
   33.6582,       595,
   33.6827,       555,
   33.7073,       571,
   33.7318,       583,
   33.7563,       588,
   33.7809,       554,
   33.8054,       580,
   33.8299,       520,
   33.8545,       556,
    33.879,       577,
   33.9036,       591,
   33.9281,       562,
   33.9526,       631,
   33.9772,       585,
   34.0017,       537,
   34.0262,       554,
   34.0508,       575,
   34.0753,       567,
   34.0998,       517,
   34.1244,       559,
   34.1489,       561,
   34.1734,       526,
    34.198,       542,
   34.2225,       573,
   34.2471,       527,
   34.2716,       526,
   34.2961,       580,
   34.3207,       595,
   34.3452,       564,
   34.3697,       548,
   34.3943,       553,
   34.4188,       539,
   34.4433,       533,
   34.4679,       553,
   34.4924,       547,
    34.517,       576,
   34.5415,       570,
    34.566,       531,
   34.5906,       522,
   34.6151,       554,
   34.6396,       549,
   34.6642,       522,
   34.6887,       546,
   34.7132,       577,
   34.7378,       577,
   34.7623,       529,
   34.7869,       559,
   34.8114,       552,
   34.8359,       598,
   34.8605,       557,
    34.885,       603,
   34.9095,       519,
   34.9341,       611,
   34.9586,       548,
   34.9831,       531,
   35.0077,       542,
   35.0322,       587,
   35.0567,       648,
   35.0813,       566,
   35.1058,       578,
   35.1304,       561,
   35.1549,       560,
   35.1794,       588,
    35.204,       562,
   35.2285,       546,
    35.253,       522,
   35.2776,       556,
   35.3021,       543,
   35.3266,       508,
   35.3512,       503,
   35.3757,       538,
   35.4003,       532,
   35.4248,       519,
   35.4493,       478,
   35.4739,       562,
   35.4984,       532,
   35.5229,       547,
   35.5475,       533,
    35.572,       583,
   35.5965,       491,
   35.6211,       560,
   35.6456,       535,
   35.6702,       556,
   35.6947,       525,
   35.7192,       587,
   35.7438,       529,
   35.7683,       563,
   35.7928,       547,
   35.8174,       551,
   35.8419,       555,
   35.8664,       544,
    35.891,       552,
   35.9155,       527,
     35.94,       579,
   35.9646,       550,
   35.9891,       539,
   36.0137,       554,
   36.0382,       545,
   36.0627,       606,
   36.0873,       583,
   36.1118,       564,
   36.1363,       563,
   36.1609,       546,
   36.1854,       552,
   36.2099,       506,
   36.2345,       554,
    36.259,       507,
   36.2836,       536,
   36.3081,       579,
   36.3326,       548,
   36.3572,       544,
   36.3817,       543,
   36.4062,       509,
   36.4308,       537,
   36.4553,       528,
   36.4798,       517,
   36.5044,       496,
   36.5289,       506,
   36.5535,       478,
    36.578,       525,
   36.6025,       508,
   36.6271,       533,
   36.6516,       489,
   36.6761,       478,
   36.7007,       523,
   36.7252,       506,
   36.7497,       478,
   36.7743,       443,
   36.7988,       484,
   36.8233,       454,
   36.8479,       528,
   36.8724,       459,
    36.897,       483,
   36.9215,       459,
    36.946,       433,
   36.9706,       429,
   36.9951,       527,
   37.0196,       462,
   37.0442,       448,
   37.0687,       439,
   37.0932,       449,
   37.1178,       496,
   37.1423,       472,
   37.1669,       463,
   37.1914,       468,
   37.2159,       477,
   37.2405,       487,
    37.265,       434,
   37.2895,       469,
   37.3141,       452,
   37.3386,       472,
   37.3631,       426,
   37.3877,       453,
   37.4122,       486,
   37.4368,       441,
   37.4613,       485,
   37.4858,       485,
   37.5104,       466,
   37.5349,       484,
   37.5594,       469,
    37.584,       483,
   37.6085,       468,
    37.633,       491,
   37.6576,       448,
   37.6821,       434,
   37.7066,       440,
   37.7312,       428,
   37.7557,       435,
   37.7803,       421,
   37.8048,       464,
   37.8293,       461,
   37.8539,       437,
   37.8784,       450,
   37.9029,       402,
   37.9275,       448,
    37.952,       456,
   37.9765,       446,
   38.0011,       449,
   38.0256,       465,
   38.0502,       402,
   38.0747,       437,
   38.0992,       501,
   38.1238,       453,
   38.1483,       433,
   38.1728,       406,
   38.1974,       471,
   38.2219,       415,
   38.2464,       416,
    38.271,       460,
   38.2955,       428,
   38.3201,       416,
   38.3446,       411,
   38.3691,       413,
   38.3937,       447,
   38.4182,       423,
   38.4427,       422,
   38.4673,       380,
   38.4918,       407,
   38.5163,       442,
   38.5409,       417,
   38.5654,       378,
   38.5899,       443,
   38.6145,       441,
    38.639,       402,
   38.6636,       429,
   38.6881,       447,
   38.7126,       408,
   38.7372,       425,
   38.7617,       427,
   38.7862,       419,
   38.8108,       415,
   38.8353,       437,
   38.8598,       432,
   38.8844,       428,
   38.9089,       437,
   38.9335,       441,
    38.958,       444,
   38.9825,       444,
   39.0071,       477,
   39.0316,       425,
   39.0561,       415,
   39.0807,       423,
   39.1052,       438,
   39.1297,       469,
   39.1543,       423,
   39.1788,       427,
   39.2034,       408,
   39.2279,       421,
   39.2524,       443,
    39.277,       456,
   39.3015,       449,
    39.326,       433,
   39.3506,       452,
   39.3751,       468,
   39.3996,       447,
   39.4242,       448,
   39.4487,       397,
   39.4732,       458,
   39.4978,       462,
   39.5223,       443,
   39.5469,       481,
   39.5714,       476,
   39.5959,       448,
   39.6205,       485,
    39.645,       443,
   39.6695,       483,
   39.6941,       497,
   39.7186,       456,
   39.7431,       461,
   39.7677,       487,
   39.7922,       496,
   39.8168,       451,
   39.8413,       446,
   39.8658,       477,
   39.8904,       460,
   39.9149,       451,
   39.9394,       441,
    39.964,       458,
   39.9885,       473,
