;RAW4.00
[RawHeader]
Date=11/29/2021
EstimatedTotalTime=633.37
FurtherDQLReading=0
HardwareIndicator=65519
MeasuredTotalTime=633.37
MeasurementFlag=1
NumberOfMeasuredRanges=1
NumberOfRanges=1
Time=11:15:14

[VarInfo]
Type=USER
Flags=0
Value=Lab Manager

[VarInfo]
Type=SAMPLEID
Flags=0
Value=

[VarInfo]
Type=COMMENT
Flags=0
Value=

[VarInfo]
Type=UTF
Flags=0
Value=

[VarInfo]
Type=CREATOR
Flags=0
Value=BrmlToV4Converter

[VarInfo]
Type=CREATOR_VERSION
Flags=0
Value=7.3.1.0

[HardwareConfiguration]
AbsorptionFactor=9999
ActivateAbsorber=0
Alpha1=0.7093
Alpha2=0.71359
AlphaAverage=0.71073
AlphaRatio=0.5
Analyzer=0
Anode=Mo
AntiScatteringSlit=18
BeamOpticsFlags=0
Beta=0.63229
BetaRelativeIntensity=0
DeactivateAbsorber=0
DetectorSlit=9999
DivergenceSlit=0.2
GoniometerControl=0
GoniometerDiameter=560
GoniometerModel=512
GoniometerStage=7
Monochromator=0
NearSampleSlit=9999
PrimarySollerSlit=2.5
SampleChanger=0
SecondSollerSlit=9999
SynchronousAxis=0
ThinFilmAttachment=9999
WaveUnit=A

[RangeHeader]
ActuallyUsedLambda=0.71073
AdditionalDetectorMask=257
DataRecordLength=4
DelayTime=0
DisplayPlaneNumber=0
EstimatedScanTime=633
ExtraParametersMask=0
GeneratorCurrent=40
GeneratorVoltage=50
Increment=0.0245361
Increment3=0
NumberOfCompletedData=1427
NumberOfCounts=1
NumberOfDetectors=0
NumberOfDrives=2
NumberOfEncoderDrives=0
NumberOfMeasuredData=1427
NumberOfVaryingParameters=0
RangeStartTime=0
RotationSpeed=60
ScanMode=1
ScanType=Locked Coupled
SimulatedMeasConditions=0
SlitChangerIn=0
SmootingWidth=0
Start=5
Steps=1427
SynchronousRotation=0
Time=76.8

[VarInfo]
Type=PSD_DISCRIM
Flags=0
Value=0.488;0.518

[PSD]
ActualTwoTheta=9999
FirstUsedChannel=0
FixedPSD=0
PSDOpening=2.94433
PSDType=5

[Drive]
DriveFlags=1
DriveName=2Theta
DriveNumber=2
DriveOffset=0
OffsetIndex=0
OscillationAmplitude=0
OscillationSpeed=0
StartPosition=5

[Drive]
DriveFlags=1
DriveName=Theta
DriveNumber=1
DriveOffset=0
OffsetIndex=0
OscillationAmplitude=0
OscillationSpeed=0
StartPosition=2.5

[Data]
     Angle,       PSD,
         5,      1325,
   5.02454,      1235,
   5.04907,      1349,
   5.07361,      1283,
   5.09814,      1160,
   5.12268,      1295,
   5.14722,      1259,
   5.17175,      1272,
   5.19629,      1307,
   5.22083,      1212,
   5.24536,      1312,
    5.2699,      1163,
   5.29443,      1260,
   5.31897,      1366,
   5.34351,      1140,
   5.36804,      1244,
   5.39258,      1173,
   5.41711,      1200,
   5.44165,      1210,
   5.46619,      1137,
   5.49072,      1257,
   5.51526,      1164,
   5.53979,      1261,
   5.56433,      1226,
   5.58887,      1184,
    5.6134,      1292,
   5.63794,      1113,
   5.66248,      1239,
   5.68701,      1185,
   5.71155,      1159,
   5.73608,      1275,
   5.76062,      1109,
   5.78516,      1211,
   5.80969,      1122,
   5.83423,      1034,
   5.85876,      1175,
    5.8833,      1050,
   5.90784,      1122,
   5.93237,      1206,
   5.95691,      1080,
   5.98144,      1164,
   6.00598,      1116,
   6.03052,      1164,
   6.05505,      1094,
   6.07959,      1017,
   6.10413,      1126,
   6.12866,      1037,
    6.1532,      1047,
   6.17773,      1108,
   6.20227,       973,
   6.22681,      1084,
   6.25134,      1028,
   6.27588,      1109,
   6.30041,      1073,
   6.32495,       955,
   6.34949,      1117,
   6.37402,       953,
   6.39856,      1118,
    6.4231,       950,
   6.44763,      1017,
   6.47217,      1036,
    6.4967,       977,
   6.52124,       997,
   6.54578,       966,
   6.57031,       945,
   6.59485,      1024,
   6.61938,       969,
   6.64392,       973,
   6.66846,      1015,
   6.69299,       938,
   6.71753,       997,
   6.74206,       861,
    6.7666,       973,
   6.79114,       933,
   6.81567,       865,
   6.84021,       940,
   6.86475,       920,
   6.88928,       931,
   6.91382,       980,
   6.93835,       844,
   6.96289,       961,
   6.98743,       881,
   7.01196,       953,
    7.0365,       972,
   7.06103,       827,
   7.08557,      1046,
   7.11011,       832,
   7.13464,       909,
   7.15918,       875,
   7.18371,       858,
   7.20825,       947,
   7.23279,       867,
   7.25732,       872,
   7.28186,       888,
    7.3064,       841,
   7.33093,       947,
   7.35547,       851,
      7.38,       890,
   7.40454,       929,
   7.42908,       819,
   7.45361,       904,
   7.47815,       763,
   7.50268,       863,
   7.52722,       929,
   7.55176,       786,
   7.57629,       861,
   7.60083,       780,
   7.62536,       852,
    7.6499,       854,
   7.67444,       789,
   7.69897,       865,
   7.72351,       769,
   7.74805,       786,
   7.77258,       759,
   7.79712,       728,
   7.82165,       781,
   7.84619,       714,
   7.87073,       704,
   7.89526,       689,
    7.9198,       605,
   7.94433,       693,
   7.96887,       605,
   7.99341,       649,
   8.01794,       662,
   8.04248,       568,
   8.06702,       692,
   8.09155,       593,
   8.11609,       615,
   8.14062,       619,
   8.16516,       576,
    8.1897,       665,
   8.21423,       584,
   8.23877,       630,
    8.2633,       662,
   8.28784,       520,
   8.31238,       664,
   8.33691,       557,
   8.36145,       622,
   8.38598,       587,
   8.41052,       575,
   8.43506,       614,
   8.45959,       562,
   8.48413,       634,
   8.50867,       615,
    8.5332,       514,
   8.55774,       634,
   8.58227,       549,
   8.60681,       549,
   8.63135,       627,
   8.65588,       537,
   8.68042,       668,
   8.70495,       576,
   8.72949,       600,
   8.75403,       618,
   8.77856,       516,
    8.8031,       667,
   8.82763,       575,
   8.85217,       624,
   8.87671,       708,
   8.90124,       560,
   8.92578,       642,
   8.95032,       595,
   8.97485,       632,
   8.99939,       636,
   9.02392,       571,
   9.04846,       668,
     9.073,       577,
   9.09753,       611,
   9.12207,       612,
    9.1466,       580,
   9.17114,       665,
   9.19568,       604,
   9.22021,       607,
   9.24475,       717,
   9.26929,       565,
   9.29382,       657,
   9.31836,       613,
   9.34289,       631,
   9.36743,       704,
   9.39197,       587,
    9.4165,       717,
   9.44104,       626,
   9.46557,       667,
   9.49011,       761,
   9.51465,       635,
   9.53918,       749,
   9.56372,       674,
   9.58825,       755,
   9.61279,       831,
   9.63733,       715,
   9.66186,       930,
    9.6864,       857,
   9.71094,       900,
   9.73547,       927,
   9.76001,       788,
   9.78454,       882,
   9.80908,       790,
   9.83362,       812,
   9.85815,       857,
   9.88269,       793,
   9.90722,       883,
   9.93176,       836,
    9.9563,       883,
   9.98083,       927,
   10.0054,       847,
   10.0299,      1015,
   10.0544,       894,
    10.079,       899,
   10.1035,       970,
    10.128,       919,
   10.1526,      1064,
   10.1771,       955,
   10.2017,      1021,
   10.2262,      1093,
   10.2507,      1019,
   10.2753,      1057,
   10.2998,      1088,
   10.3243,      1048,
   10.3489,      1127,
   10.3734,      1056,
   10.3979,      1177,
   10.4225,      1123,
    10.447,      1197,
   10.4716,      1153,
   10.4961,      1138,
   10.5206,      1131,
   10.5452,      1187,
   10.5697,      1193,
   10.5942,      1231,
   10.6188,      1250,
   10.6433,      1390,
   10.6678,      1355,
   10.6924,      1358,
   10.7169,      1298,
   10.7415,      1295,
    10.766,      1307,
   10.7905,      1236,
   10.8151,      1345,
   10.8396,      1355,
   10.8641,      1255,
   10.8887,      1345,
   10.9132,      1293,
   10.9377,      1408,
   10.9623,      1341,
   10.9868,      1314,
   11.0113,      1412,
   11.0359,      1396,
   11.0604,      1477,
    11.085,      1412,
   11.1095,      1430,
    11.134,      1386,
   11.1586,      1390,
   11.1831,      1417,
   11.2076,      1376,
   11.2322,      1426,
   11.2567,      1430,
   11.2812,      1553,
   11.3058,      1560,
   11.3303,      1681,
   11.3549,      1722,
   11.3794,      1894,
   11.4039,      2080,
   11.4285,      2131,
    11.453,      2289,
   11.4775,      2314,
   11.5021,      2245,
   11.5266,      2116,
   11.5511,      1981,
   11.5757,      1838,
   11.6002,      1782,
   11.6248,      1702,
   11.6493,      1603,
   11.6738,      1632,
   11.6984,      1534,
   11.7229,      1556,
   11.7474,      1445,
    11.772,      1522,
   11.7965,      1510,
    11.821,      1605,
   11.8456,      1433,
   11.8701,      1507,
   11.8946,      1485,
   11.9192,      1432,
   11.9437,      1448,
   11.9683,      1561,
   11.9928,      1459,
   12.0173,      1481,
   12.0419,      1476,
   12.0664,      1512,
   12.0909,      1549,
   12.1155,      1514,
     12.14,      1484,
   12.1645,      1544,
   12.1891,      1513,
   12.2136,      1538,
   12.2382,      1586,
   12.2627,      1593,
   12.2872,      1703,
   12.3118,      1782,
   12.3363,      1895,
   12.3608,      2130,
   12.3854,      2357,
   12.4099,      2622,
   12.4344,      2671,
    12.459,      2666,
   12.4835,      2594,
   12.5081,      2434,
   12.5326,      2257,
   12.5571,      2015,
   12.5817,      1864,
   12.6062,      1742,
   12.6307,      1601,
   12.6553,      1535,
   12.6798,      1562,
   12.7043,      1492,
   12.7289,      1475,
   12.7534,      1436,
    12.778,      1448,
   12.8025,      1388,
    12.827,      1428,
   12.8516,      1416,
   12.8761,      1374,
   12.9006,      1375,
   12.9252,      1462,
   12.9497,      1363,
   12.9742,      1368,
   12.9988,      1326,
   13.0233,      1307,
   13.0478,      1317,
   13.0724,      1347,
   13.0969,      1336,
   13.1215,      1405,
    13.146,      1300,
   13.1705,      1346,
   13.1951,      1289,
   13.2196,      1358,
   13.2441,      1360,
   13.2687,      1368,
   13.2932,      1397,
   13.3177,      1354,
   13.3423,      1432,
   13.3668,      1380,
   13.3914,      1456,
   13.4159,      1591,
   13.4404,      1788,
    13.465,      2227,
   13.4895,      2517,
    13.514,      2397,
   13.5386,      2258,
   13.5631,      2108,
   13.5876,      1842,
   13.6122,      1563,
   13.6367,      1406,
   13.6613,      1365,
   13.6858,      1315,
   13.7103,      1233,
   13.7349,      1287,
   13.7594,      1229,
   13.7839,      1298,
   13.8085,      1192,
    13.833,      1306,
   13.8575,      1202,
   13.8821,      1240,
   13.9066,      1230,
   13.9311,      1230,
   13.9557,      1199,
   13.9802,      1274,
   14.0048,      1222,
   14.0293,      1167,
   14.0538,      1255,
   14.0784,      1169,
   14.1029,      1222,
   14.1274,      1188,
    14.152,      1194,
   14.1765,      1143,
    14.201,      1143,
   14.2256,      1149,
   14.2501,      1080,
   14.2747,      1190,
   14.2992,      1136,
   14.3237,      1221,
   14.3483,      1177,
   14.3728,      1150,
   14.3973,      1184,
   14.4219,      1171,
   14.4464,      1156,
   14.4709,      1184,
   14.4955,      1212,
     14.52,      1231,
   14.5446,      1164,
   14.5691,      1272,
   14.5936,      1173,
   14.6182,      1174,
   14.6427,      1232,
   14.6672,      1156,
   14.6918,      1165,
   14.7163,      1132,
   14.7408,      1147,
   14.7654,      1191,
   14.7899,      1149,
   14.8144,      1314,
    14.839,      1307,
   14.8635,      1343,
   14.8881,      1446,
   14.9126,      1638,
   14.9371,      1766,
   14.9617,      1927,
   14.9862,      2008,
   15.0107,      2088,
   15.0353,      2018,
   15.0598,      1878,
   15.0843,      1841,
   15.1089,      1637,
   15.1334,      1559,
    15.158,      1383,
   15.1825,      1305,
    15.207,      1238,
   15.2316,      1255,
   15.2561,      1100,
   15.2806,      1061,
   15.3052,      1118,
   15.3297,      1061,
   15.3542,      1041,
   15.3788,      1039,
   15.4033,       950,
   15.4279,      1018,
   15.4524,       977,
   15.4769,      1013,
   15.5015,       950,
    15.526,       945,
   15.5505,       977,
   15.5751,       983,
   15.5996,       946,
   15.6241,      1018,
   15.6487,       929,
   15.6732,       947,
   15.6977,       944,
   15.7223,       868,
   15.7468,       923,
   15.7714,       959,
   15.7959,       932,
   15.8204,       930,
    15.845,       949,
   15.8695,       879,
    15.894,       894,
   15.9186,       905,
   15.9431,       896,
   15.9676,       847,
   15.9922,       904,
   16.0167,       891,
   16.0413,       891,
   16.0658,       877,
   16.0903,       911,
   16.1149,       902,
   16.1394,       904,
   16.1639,       867,
   16.1885,       877,
    16.213,       872,
   16.2375,       836,
   16.2621,       886,
   16.2866,       812,
   16.3112,       871,
   16.3357,       909,
   16.3602,       848,
   16.3848,       914,
   16.4093,       992,
   16.4338,       987,
   16.4584,       897,
   16.4829,       939,
   16.5074,       854,
    16.532,       928,
   16.5565,       842,
    16.581,       802,
   16.6056,       805,
   16.6301,       807,
   16.6547,       801,
   16.6792,       816,
   16.7037,       821,
   16.7283,       785,
   16.7528,       801,
   16.7773,       783,
   16.8019,       800,
   16.8264,       799,
   16.8509,       786,
   16.8755,       768,
      16.9,       765,
   16.9246,       773,
   16.9491,       774,
   16.9736,       809,
   16.9982,       788,
   17.0227,       813,
   17.0472,       764,
   17.0718,       818,
   17.0963,       722,
   17.1208,       745,
   17.1454,       776,
   17.1699,       745,
   17.1945,       789,
    17.219,       768,
   17.2435,       733,
   17.2681,       791,
   17.2926,       717,
   17.3171,       749,
   17.3417,       794,
   17.3662,       752,
   17.3907,       791,
   17.4153,       768,
   17.4398,       784,
   17.4643,       781,
   17.4889,       746,
   17.5134,       767,
    17.538,       834,
   17.5625,       773,
    17.587,       798,
   17.6116,       808,
   17.6361,       860,
   17.6606,       843,
   17.6852,       825,
   17.7097,       811,
   17.7342,       866,
   17.7588,       870,
   17.7833,       848,
   17.8079,       815,
   17.8324,       815,
   17.8569,       850,
   17.8815,       853,
    17.906,       968,
   17.9305,      1037,
   17.9551,       949,
   17.9796,       874,
   18.0041,       948,
   18.0287,       873,
   18.0532,       829,
   18.0778,       824,
   18.1023,       825,
   18.1268,       819,
   18.1514,       717,
   18.1759,       798,
   18.2004,       823,
    18.225,       741,
   18.2495,       745,
    18.274,       732,
   18.2986,       722,
   18.3231,       772,
   18.3476,       800,
   18.3722,       724,
   18.3967,       796,
   18.4213,       750,
   18.4458,       819,
   18.4703,       756,
   18.4949,       788,
   18.5194,       793,
   18.5439,       766,
   18.5685,       781,
    18.593,       777,
   18.6175,       713,
   18.6421,       740,
   18.6666,       778,
   18.6912,       787,
   18.7157,       683,
   18.7402,       718,
   18.7648,       686,
   18.7893,       749,
   18.8138,       772,
   18.8384,       770,
   18.8629,       782,
   18.8874,       773,
    18.912,       794,
   18.9365,       736,
   18.9611,       782,
   18.9856,       808,
   19.0101,       763,
   19.0347,       760,
   19.0592,       769,
   19.0837,       743,
   19.1083,       763,
   19.1328,       763,
   19.1573,       750,
   19.1819,       731,
   19.2064,       726,
    19.231,       783,
   19.2555,       796,
     19.28,       817,
   19.3046,       768,
   19.3291,       765,
   19.3536,       906,
   19.3782,       823,
   19.4027,       827,
   19.4272,       792,
   19.4518,       854,
   19.4763,       825,
   19.5008,       868,
   19.5254,       888,
   19.5499,       913,
   19.5745,       981,
    19.599,       908,
   19.6235,       876,
   19.6481,       858,
   19.6726,       911,
   19.6971,       890,
   19.7217,       919,
   19.7462,       925,
   19.7707,      1048,
   19.7953,      1082,
   19.8198,      1152,
   19.8444,      1242,
   19.8689,      1223,
   19.8934,      1241,
    19.918,      1260,
   19.9425,      1082,
    19.967,      1088,
   19.9916,      1041,
   20.0161,      1037,
   20.0406,       914,
   20.0652,       902,
   20.0897,       863,
   20.1143,       737,
   20.1388,       789,
   20.1633,       773,
   20.1879,       807,
   20.2124,       734,
   20.2369,       730,
   20.2615,       719,
    20.286,       708,
   20.3105,       765,
   20.3351,       744,
   20.3596,       735,
   20.3841,       721,
   20.4087,       763,
   20.4332,       721,
   20.4578,       737,
   20.4823,       742,
   20.5068,       750,
   20.5314,       705,
   20.5559,       772,
   20.5804,       778,
    20.605,       695,
   20.6295,       731,
    20.654,       770,
   20.6786,       760,
   20.7031,       707,
   20.7277,       693,
   20.7522,       681,
   20.7767,       681,
   20.8013,       691,
   20.8258,       666,
   20.8503,       742,
   20.8749,       658,
   20.8994,       727,
   20.9239,       681,
   20.9485,       622,
    20.973,       687,
   20.9976,       721,
   21.0221,       698,
   21.0466,       701,
   21.0712,       704,
   21.0957,       678,
   21.1202,       668,
   21.1448,       765,
   21.1693,       674,
   21.1938,       696,
   21.2184,       780,
   21.2429,       795,
   21.2674,       755,
    21.292,       759,
   21.3165,       778,
   21.3411,       810,
   21.3656,       737,
   21.3901,       821,
   21.4147,       811,
   21.4392,       919,
   21.4637,       976,
   21.4883,       805,
   21.5128,       791,
   21.5373,       768,
   21.5619,       821,
   21.5864,       787,
    21.611,       748,
   21.6355,       764,
     21.66,       726,
   21.6846,       757,
   21.7091,       744,
   21.7336,       763,
   21.7582,       799,
   21.7827,       743,
   21.8072,       741,
   21.8318,       860,
   21.8563,       912,
   21.8809,       945,
   21.9054,       934,
   21.9299,       864,
   21.9545,       800,
    21.979,       946,
   22.0035,       914,
   22.0281,       881,
   22.0526,       899,
   22.0771,       879,
   22.1017,       919,
   22.1262,       859,
   22.1507,       854,
   22.1753,       895,
   22.1998,       856,
   22.2244,       800,
   22.2489,       835,
   22.2734,       841,
    22.298,       819,
   22.3225,       823,
    22.347,       785,
   22.3716,       814,
   22.3961,       810,
   22.4206,       882,
   22.4452,       927,
   22.4697,       959,
   22.4943,      1020,
   22.5188,      1096,
   22.5433,      1145,
   22.5679,      1066,
   22.5924,      1059,
   22.6169,      1020,
   22.6415,      1008,
    22.666,       949,
   22.6905,       928,
   22.7151,       862,
   22.7396,       831,
   22.7642,       803,
   22.7887,       857,
   22.8132,       780,
   22.8378,       693,
   22.8623,       693,
   22.8868,       676,
   22.9114,       710,
   22.9359,       703,
   22.9604,       761,
    22.985,       774,
   23.0095,       721,
    23.034,       702,
   23.0586,       724,
   23.0831,       698,
   23.1077,       708,
   23.1322,       679,
   23.1567,       663,
   23.1813,       657,
   23.2058,       666,
   23.2303,       693,
   23.2549,       680,
   23.2794,       720,
   23.3039,       673,
   23.3285,       695,
    23.353,       644,
   23.3776,       646,
   23.4021,       679,
   23.4266,       684,
   23.4512,       643,
   23.4757,       662,
   23.5002,       700,
   23.5248,       667,
   23.5493,       679,
   23.5738,       693,
   23.5984,       643,
   23.6229,       695,
   23.6475,       708,
    23.672,       710,
   23.6965,       652,
   23.7211,       642,
   23.7456,       683,
   23.7701,       691,
   23.7947,       659,
   23.8192,       649,
   23.8437,       708,
   23.8683,       686,
   23.8928,       696,
   23.9173,       696,
   23.9419,       657,
   23.9664,       699,
    23.991,       705,
   24.0155,       656,
     24.04,       663,
   24.0646,       672,
   24.0891,       697,
   24.1136,       713,
   24.1382,       640,
   24.1627,       717,
   24.1872,       639,
   24.2118,       720,
   24.2363,       685,
   24.2609,       677,
   24.2854,       649,
   24.3099,       675,
   24.3345,       683,
    24.359,       685,
   24.3835,       679,
   24.4081,       654,
   24.4326,       672,
   24.4571,       697,
   24.4817,       700,
   24.5062,       715,
   24.5308,       659,
   24.5553,       687,
   24.5798,       714,
   24.6044,       696,
   24.6289,       640,
   24.6534,       691,
    24.678,       717,
   24.7025,       726,
    24.727,       698,
   24.7516,       716,
   24.7761,       708,
   24.8006,       753,
   24.8252,       747,
   24.8497,       789,
   24.8743,       732,
   24.8988,       819,
   24.9233,       818,
   24.9479,       812,
   24.9724,       831,
   24.9969,       792,
   25.0215,       822,
    25.046,       764,
   25.0705,       851,
   25.0951,       798,
   25.1196,       837,
   25.1442,       815,
   25.1687,       736,
   25.1932,       754,
   25.2178,       774,
   25.2423,       753,
   25.2668,       751,
   25.2914,       792,
   25.3159,       763,
   25.3404,       755,
    25.365,       735,
   25.3895,       744,
   25.4141,       759,
   25.4386,       766,
   25.4631,       736,
   25.4877,       726,
   25.5122,       730,
   25.5367,       766,
   25.5613,       697,
   25.5858,       714,
   25.6103,       779,
   25.6349,       740,
   25.6594,       769,
   25.6839,       711,
   25.7085,       691,
    25.733,       754,
   25.7576,       717,
   25.7821,       737,
   25.8066,       710,
   25.8312,       711,
   25.8557,       732,
   25.8802,       673,
   25.9048,       695,
   25.9293,       738,
   25.9538,       694,
   25.9784,       695,
   26.0029,       723,
   26.0275,       691,
    26.052,       713,
   26.0765,       685,
   26.1011,       706,
   26.1256,       718,
   26.1501,       671,
   26.1747,       694,
   26.1992,       705,
   26.2237,       665,
   26.2483,       673,
   26.2728,       699,
   26.2974,       682,
   26.3219,       693,
   26.3464,       696,
    26.371,       706,
   26.3955,       683,
     26.42,       657,
   26.4446,       713,
   26.4691,       692,
   26.4936,       705,
   26.5182,       736,
   26.5427,       681,
   26.5673,       722,
   26.5918,       637,
   26.6163,       699,
   26.6409,       711,
   26.6654,       698,
   26.6899,       747,
   26.7145,       695,
    26.739,       695,
   26.7635,       747,
   26.7881,       750,
   26.8126,       706,
   26.8371,       757,
   26.8617,       785,
   26.8862,       786,
   26.9108,       761,
   26.9353,       734,
   26.9598,       801,
   26.9844,       740,
   27.0089,       805,
   27.0334,       766,
    27.058,       753,
   27.0825,       707,
    27.107,       767,
   27.1316,       768,
   27.1561,       764,
   27.1807,       695,
   27.2052,       709,
   27.2297,       710,
   27.2543,       774,
   27.2788,       756,
   27.3033,       675,
   27.3279,       745,
   27.3524,       737,
   27.3769,       710,
   27.4015,       771,
    27.426,       681,
   27.4506,       743,
   27.4751,       714,
   27.4996,       714,
   27.5242,       684,
   27.5487,       687,
   27.5732,       675,
   27.5978,       708,
   27.6223,       695,
   27.6468,       691,
   27.6714,       694,
   27.6959,       722,
   27.7204,       743,
    27.745,       709,
   27.7695,       736,
   27.7941,       744,
   27.8186,       733,
   27.8431,       727,
   27.8677,       709,
   27.8922,       761,
   27.9167,       764,
   27.9413,       773,
   27.9658,       730,
   27.9903,       725,
   28.0149,       679,
   28.0394,       685,
    28.064,       741,
   28.0885,       725,
    28.113,       682,
   28.1376,       701,
   28.1621,       747,
   28.1866,       734,
   28.2112,       651,
   28.2357,       751,
   28.2602,       695,
   28.2848,       676,
   28.3093,       752,
   28.3339,       694,
   28.3584,       721,
   28.3829,       727,
   28.4075,       727,
    28.432,       751,
   28.4565,       746,
   28.4811,       745,
   28.5056,       705,
   28.5301,       668,
   28.5547,       758,
   28.5792,       740,
   28.6037,       693,
   28.6283,       766,
   28.6528,       744,
   28.6774,       679,
   28.7019,       719,
   28.7264,       785,
    28.751,       724,
   28.7755,       745,
      28.8,       796,
   28.8246,       785,
   28.8491,       707,
   28.8736,       758,
   28.8982,       761,
   28.9227,       706,
   28.9473,       728,
   28.9718,       725,
   28.9963,       753,
   29.0209,       689,
   29.0454,       727,
   29.0699,       727,
   29.0945,       722,
    29.119,       693,
   29.1435,       709,
   29.1681,       684,
   29.1926,       670,
   29.2172,       684,
   29.2417,       746,
   29.2662,       721,
   29.2908,       715,
   29.3153,       697,
   29.3398,       670,
   29.3644,       681,
   29.3889,       720,
   29.4134,       679,
    29.438,       696,
   29.4625,       740,
    29.487,       666,
   29.5116,       652,
   29.5361,       643,
   29.5607,       631,
   29.5852,       642,
   29.6097,       683,
   29.6343,       682,
   29.6588,       645,
   29.6833,       681,
   29.7079,       661,
   29.7324,       716,
   29.7569,       719,
   29.7815,       692,
    29.806,       678,
   29.8306,       717,
   29.8551,       663,
   29.8796,       659,
   29.9042,       655,
   29.9287,       701,
   29.9532,       668,
   29.9778,       680,
   30.0023,       681,
   30.0268,       713,
   30.0514,       734,
   30.0759,       716,
   30.1005,       716,
    30.125,       687,
   30.1495,       714,
   30.1741,       675,
   30.1986,       732,
   30.2231,       680,
   30.2477,       747,
   30.2722,       712,
   30.2967,       693,
   30.3213,       648,
   30.3458,       679,
   30.3703,       713,
   30.3949,       670,
   30.4194,       671,
    30.444,       698,
   30.4685,       669,
    30.493,       654,
   30.5176,       680,
   30.5421,       677,
   30.5666,       677,
   30.5912,       686,
   30.6157,       710,
   30.6402,       642,
   30.6648,       681,
   30.6893,       639,
   30.7139,       698,
   30.7384,       693,
   30.7629,       708,
   30.7875,       680,
    30.812,       713,
   30.8365,       662,
   30.8611,       639,
   30.8856,       689,
   30.9101,       704,
   30.9347,       666,
   30.9592,       692,
   30.9838,       677,
   31.0083,       644,
   31.0328,       681,
   31.0574,       640,
   31.0819,       635,
   31.1064,       639,
    31.131,       630,
   31.1555,       694,
     31.18,       650,
   31.2046,       665,
   31.2291,       636,
   31.2536,       670,
   31.2782,       667,
   31.3027,       677,
   31.3273,       675,
   31.3518,       664,
   31.3763,       666,
   31.4009,       697,
   31.4254,       725,
   31.4499,       690,
   31.4745,       685,
    31.499,       659,
   31.5235,       628,
   31.5481,       720,
   31.5726,       670,
   31.5972,       695,
   31.6217,       663,
   31.6462,       758,
   31.6708,       727,
   31.6953,       636,
   31.7198,       636,
   31.7444,       658,
   31.7689,       671,
   31.7934,       645,
    31.818,       691,
   31.8425,       670,
   31.8671,       754,
   31.8916,       671,
   31.9161,       675,
   31.9407,       686,
   31.9652,       674,
   31.9897,       737,
   32.0143,       700,
   32.0388,       690,
   32.0633,       706,
   32.0879,       689,
   32.1124,       683,
   32.1369,       645,
   32.1615,       700,
    32.186,       693,
   32.2106,       678,
   32.2351,       650,
   32.2596,       689,
   32.2842,       630,
   32.3087,       656,
   32.3332,       664,
   32.3578,       670,
   32.3823,       693,
   32.4068,       626,
   32.4314,       587,
   32.4559,       638,
   32.4805,       599,
    32.505,       585,
   32.5295,       625,
   32.5541,       606,
   32.5786,       618,
   32.6031,       582,
   32.6277,       571,
   32.6522,       601,
   32.6767,       637,
   32.7013,       632,
   32.7258,       631,
   32.7504,       669,
   32.7749,       624,
   32.7994,       629,
    32.824,       630,
   32.8485,       638,
    32.873,       570,
   32.8976,       596,
   32.9221,       598,
   32.9466,       599,
   32.9712,       632,
   32.9957,       614,
   33.0203,       610,
   33.0448,       581,
   33.0693,       621,
   33.0939,       624,
   33.1184,       643,
   33.1429,       625,
   33.1675,       634,
    33.192,       590,
   33.2165,       637,
   33.2411,       633,
   33.2656,       640,
   33.2901,       625,
   33.3147,       648,
   33.3392,       637,
   33.3638,       607,
   33.3883,       636,
   33.4128,       665,
   33.4374,       646,
   33.4619,       646,
   33.4864,       625,
    33.511,       617,
   33.5355,       654,
     33.56,       578,
   33.5846,       618,
   33.6091,       548,
   33.6337,       603,
   33.6582,       623,
   33.6827,       580,
   33.7073,       590,
   33.7318,       626,
   33.7563,       594,
   33.7809,       566,
   33.8054,       604,
   33.8299,       595,
   33.8545,       559,
    33.879,       582,
   33.9036,       566,
   33.9281,       576,
   33.9526,       600,
   33.9772,       567,
   34.0017,       527,
   34.0262,       595,
   34.0508,       603,
   34.0753,       584,
   34.0998,       575,
   34.1244,       584,
   34.1489,       595,
   34.1734,       575,
    34.198,       612,
   34.2225,       603,
   34.2471,       571,
   34.2716,       598,
   34.2961,       552,
   34.3207,       581,
   34.3452,       605,
   34.3697,       565,
   34.3943,       584,
   34.4188,       575,
   34.4433,       539,
   34.4679,       563,
   34.4924,       574,
    34.517,       576,
   34.5415,       532,
    34.566,       577,
   34.5906,       571,
   34.6151,       571,
   34.6396,       604,
   34.6642,       600,
   34.6887,       541,
   34.7132,       570,
   34.7378,       609,
   34.7623,       568,
   34.7869,       558,
   34.8114,       581,
   34.8359,       586,
   34.8605,       577,
    34.885,       612,
   34.9095,       615,
   34.9341,       653,
   34.9586,       584,
   34.9831,       585,
   35.0077,       558,
   35.0322,       606,
   35.0567,       592,
   35.0813,       577,
   35.1058,       602,
   35.1304,       607,
   35.1549,       571,
   35.1794,       585,
    35.204,       557,
   35.2285,       553,
    35.253,       549,
   35.2776,       582,
   35.3021,       569,
   35.3266,       571,
   35.3512,       529,
   35.3757,       588,
   35.4003,       564,
   35.4248,       569,
   35.4493,       510,
   35.4739,       551,
   35.4984,       560,
   35.5229,       584,
   35.5475,       553,
    35.572,       536,
   35.5965,       617,
   35.6211,       569,
   35.6456,       572,
   35.6702,       570,
   35.6947,       579,
   35.7192,       508,
   35.7438,       577,
   35.7683,       584,
   35.7928,       582,
   35.8174,       627,
   35.8419,       536,
   35.8664,       589,
    35.891,       532,
   35.9155,       562,
     35.94,       602,
   35.9646,       617,
   35.9891,       567,
   36.0137,       552,
   36.0382,       523,
   36.0627,       573,
   36.0873,       582,
   36.1118,       567,
   36.1363,       591,
   36.1609,       570,
   36.1854,       559,
   36.2099,       591,
   36.2345,       556,
    36.259,       601,
   36.2836,       519,
   36.3081,       588,
   36.3326,       585,
   36.3572,       513,
   36.3817,       513,
   36.4062,       525,
   36.4308,       486,
   36.4553,       513,
   36.4798,       547,
   36.5044,       495,
   36.5289,       537,
   36.5535,       526,
    36.578,       547,
   36.6025,       524,
   36.6271,       555,
   36.6516,       494,
   36.6761,       521,
   36.7007,       486,
   36.7252,       533,
   36.7497,       501,
   36.7743,       491,
   36.7988,       510,
   36.8233,       510,
   36.8479,       497,
   36.8724,       474,
    36.897,       486,
   36.9215,       501,
    36.946,       472,
   36.9706,       495,
   36.9951,       482,
   37.0196,       485,
   37.0442,       474,
   37.0687,       476,
   37.0932,       481,
   37.1178,       495,
   37.1423,       452,
   37.1669,       521,
   37.1914,       496,
   37.2159,       508,
   37.2405,       514,
    37.265,       481,
   37.2895,       486,
   37.3141,       481,
   37.3386,       486,
   37.3631,       521,
   37.3877,       473,
   37.4122,       494,
   37.4368,       482,
   37.4613,       492,
   37.4858,       495,
   37.5104,       456,
   37.5349,       464,
   37.5594,       475,
    37.584,       490,
   37.6085,       473,
    37.633,       505,
   37.6576,       445,
   37.6821,       500,
   37.7066,       478,
   37.7312,       498,
   37.7557,       497,
   37.7803,       458,
   37.8048,       465,
   37.8293,       450,
   37.8539,       439,
   37.8784,       457,
   37.9029,       440,
   37.9275,       447,
    37.952,       466,
   37.9765,       471,
   38.0011,       456,
   38.0256,       458,
   38.0502,       453,
   38.0747,       460,
   38.0992,       449,
   38.1238,       427,
   38.1483,       482,
   38.1728,       471,
   38.1974,       469,
   38.2219,       491,
   38.2464,       461,
    38.271,       461,
   38.2955,       463,
   38.3201,       485,
   38.3446,       481,
   38.3691,       447,
   38.3937,       492,
   38.4182,       495,
   38.4427,       409,
   38.4673,       449,
   38.4918,       467,
   38.5163,       434,
   38.5409,       467,
   38.5654,       472,
   38.5899,       434,
   38.6145,       457,
    38.639,       465,
   38.6636,       420,
   38.6881,       445,
   38.7126,       480,
   38.7372,       455,
   38.7617,       421,
   38.7862,       421,
   38.8108,       506,
   38.8353,       476,
   38.8598,       434,
   38.8844,       452,
   38.9089,       459,
   38.9335,       422,
    38.958,       450,
   38.9825,       446,
   39.0071,       454,
   39.0316,       445,
   39.0561,       404,
   39.0807,       425,
   39.1052,       470,
   39.1297,       472,
   39.1543,       485,
   39.1788,       434,
   39.2034,       479,
   39.2279,       427,
   39.2524,       417,
    39.277,       460,
   39.3015,       470,
    39.326,       443,
   39.3506,       484,
   39.3751,       426,
   39.3996,       449,
   39.4242,       396,
   39.4487,       459,
   39.4732,       501,
   39.4978,       463,
   39.5223,       457,
   39.5469,       522,
   39.5714,       475,
   39.5959,       465,
   39.6205,       464,
    39.645,       515,
   39.6695,       529,
   39.6941,       499,
   39.7186,       472,
   39.7431,       464,
   39.7677,       467,
   39.7922,       436,
   39.8168,       518,
   39.8413,       455,
   39.8658,       518,
   39.8904,       475,
   39.9149,       439,
   39.9394,       480,
    39.964,       491,
   39.9885,       436,
