;RAW4.00
[RawHeader]
Date=11/29/2021
EstimatedTotalTime=633.45
FurtherDQLReading=0
HardwareIndicator=65519
MeasuredTotalTime=633.45
MeasurementFlag=1
NumberOfMeasuredRanges=1
NumberOfRanges=1
Time=11:27:48

[VarInfo]
Type=USER
Flags=0
Value=Lab Manager

[VarInfo]
Type=SAMPLEID
Flags=0
Value=

[VarInfo]
Type=COMMENT
Flags=0
Value=

[VarInfo]
Type=UTF
Flags=0
Value=

[VarInfo]
Type=CREATOR
Flags=0
Value=BrmlToV4Converter

[VarInfo]
Type=CREATOR_VERSION
Flags=0
Value=7.3.1.0

[HardwareConfiguration]
AbsorptionFactor=9999
ActivateAbsorber=0
Alpha1=0.7093
Alpha2=0.71359
AlphaAverage=0.71073
AlphaRatio=0.5
Analyzer=0
Anode=Mo
AntiScatteringSlit=18
BeamOpticsFlags=0
Beta=0.63229
BetaRelativeIntensity=0
DeactivateAbsorber=0
DetectorSlit=9999
DivergenceSlit=0.2
GoniometerControl=0
GoniometerDiameter=560
GoniometerModel=512
GoniometerStage=7
Monochromator=0
NearSampleSlit=9999
PrimarySollerSlit=2.5
SampleChanger=0
SecondSollerSlit=9999
SynchronousAxis=0
ThinFilmAttachment=9999
WaveUnit=A

[RangeHeader]
ActuallyUsedLambda=0.71073
AdditionalDetectorMask=257
DataRecordLength=4
DelayTime=0
DisplayPlaneNumber=0
EstimatedScanTime=633
ExtraParametersMask=0
GeneratorCurrent=40
GeneratorVoltage=50
Increment=0.0245361
Increment3=0
NumberOfCompletedData=1427
NumberOfCounts=1
NumberOfDetectors=0
NumberOfDrives=2
NumberOfEncoderDrives=0
NumberOfMeasuredData=1427
NumberOfVaryingParameters=0
RangeStartTime=0
RotationSpeed=60
ScanMode=1
ScanType=Locked Coupled
SimulatedMeasConditions=0
SlitChangerIn=0
SmootingWidth=0
Start=5
Steps=1427
SynchronousRotation=0
Time=76.8

[VarInfo]
Type=PSD_DISCRIM
Flags=0
Value=0.488;0.518

[PSD]
ActualTwoTheta=9999
FirstUsedChannel=0
FixedPSD=0
PSDOpening=2.94433
PSDType=5

[Drive]
DriveFlags=1
DriveName=2Theta
DriveNumber=2
DriveOffset=0
OffsetIndex=0
OscillationAmplitude=0
OscillationSpeed=0
StartPosition=5

[Drive]
DriveFlags=1
DriveName=Theta
DriveNumber=1
DriveOffset=0
OffsetIndex=0
OscillationAmplitude=0
OscillationSpeed=0
StartPosition=2.5

[Data]
     Angle,       PSD,
         5,      1109,
   5.02454,      1235,
   5.04907,      1070,
   5.07361,      1139,
   5.09814,      1081,
   5.12268,      1154,
   5.14722,      1118,
   5.17175,      1004,
   5.19629,      1115,
   5.22083,      1106,
   5.24536,      1137,
    5.2699,      1115,
   5.29443,      1074,
   5.31897,      1103,
   5.34351,      1156,
   5.36804,      1084,
   5.39258,      1160,
   5.41711,      1069,
   5.44165,      1056,
   5.46619,      1113,
   5.49072,      1043,
   5.51526,      1176,
   5.53979,       990,
   5.56433,      1105,
   5.58887,      1057,
    5.6134,      1036,
   5.63794,      1091,
   5.66248,      1057,
   5.68701,      1073,
   5.71155,      1057,
   5.73608,      1039,
   5.76062,      1017,
   5.78516,      1002,
   5.80969,      1103,
   5.83423,      1082,
   5.85876,       977,
    5.8833,      1083,
   5.90784,       996,
   5.93237,      1032,
   5.95691,      1012,
   5.98144,       988,
   6.00598,      1037,
   6.03052,       954,
   6.05505,      1028,
   6.07959,       976,
   6.10413,       984,
   6.12866,      1032,
    6.1532,       910,
   6.17773,      1032,
   6.20227,       968,
   6.22681,       934,
   6.25134,       998,
   6.27588,       914,
   6.30041,       967,
   6.32495,       946,
   6.34949,       937,
   6.37402,       990,
   6.39856,       907,
    6.4231,       952,
   6.44763,       917,
   6.47217,       895,
    6.4967,       959,
   6.52124,       905,
   6.54578,      1014,
   6.57031,       888,
   6.59485,       927,
   6.61938,       979,
   6.64392,       874,
   6.66846,       949,
   6.69299,       905,
   6.71753,       871,
   6.74206,       869,
    6.7666,       779,
   6.79114,       918,
   6.81567,       888,
   6.84021,       822,
   6.86475,       878,
   6.88928,       901,
   6.91382,       871,
   6.93835,       841,
   6.96289,       823,
   6.98743,       877,
   7.01196,       766,
    7.0365,       877,
   7.06103,       911,
   7.08557,       785,
   7.11011,       888,
   7.13464,       803,
   7.15918,       847,
   7.18371,       795,
   7.20825,       812,
   7.23279,       845,
   7.25732,       805,
   7.28186,       871,
    7.3064,       807,
   7.33093,       794,
   7.35547,       854,
      7.38,       758,
   7.40454,       796,
   7.42908,       769,
   7.45361,       789,
   7.47815,       829,
   7.50268,       731,
   7.52722,       804,
   7.55176,       795,
   7.57629,       793,
   7.60083,       845,
   7.62536,       718,
    7.6499,       775,
   7.67444,       748,
   7.69897,       740,
   7.72351,       803,
   7.74805,       739,
   7.77258,       752,
   7.79712,       730,
   7.82165,       672,
   7.84619,       755,
   7.87073,       625,
   7.89526,       684,
    7.9198,       607,
   7.94433,       573,
   7.96887,       647,
   7.99341,       545,
   8.01794,       582,
   8.04248,       545,
   8.06702,       515,
   8.09155,       590,
   8.11609,       538,
   8.14062,       560,
   8.16516,       534,
    8.1897,       521,
   8.21423,       569,
   8.23877,       537,
    8.2633,       586,
   8.28784,       538,
   8.31238,       525,
   8.33691,       570,
   8.36145,       530,
   8.38598,       557,
   8.41052,       561,
   8.43506,       506,
   8.45959,       571,
   8.48413,       488,
   8.50867,       570,
    8.5332,       569,
   8.55774,       558,
   8.58227,       582,
   8.60681,       496,
   8.63135,       583,
   8.65588,       572,
   8.68042,       493,
   8.70495,       585,
   8.72949,       546,
   8.75403,       613,
   8.77856,       590,
    8.8031,       543,
   8.82763,       587,
   8.85217,       500,
   8.87671,       596,
   8.90124,       516,
   8.92578,       538,
   8.95032,       625,
   8.97485,       538,
   8.99939,       612,
   9.02392,       566,
   9.04846,       591,
     9.073,       634,
   9.09753,       558,
   9.12207,       671,
    9.1466,       643,
   9.17114,       618,
   9.19568,       651,
   9.22021,       671,
   9.24475,       692,
   9.26929,       631,
   9.29382,       640,
   9.31836,       683,
   9.34289,       630,
   9.36743,       662,
   9.39197,       694,
    9.4165,       678,
   9.44104,       758,
   9.46557,       703,
   9.49011,       767,
   9.51465,       711,
   9.53918,       697,
   9.56372,       802,
   9.58825,       705,
   9.61279,       824,
   9.63733,       902,
   9.66186,       840,
    9.6864,       877,
   9.71094,       882,
   9.73547,       965,
   9.76001,       958,
   9.78454,       891,
   9.80908,       999,
   9.83362,       845,
   9.85815,       897,
   9.88269,       901,
   9.90722,       877,
   9.93176,       932,
    9.9563,       826,
   9.98083,       951,
   10.0054,       879,
   10.0299,       913,
   10.0544,       901,
    10.079,       908,
   10.1035,       963,
    10.128,       920,
   10.1526,       972,
   10.1771,       923,
   10.2017,       958,
   10.2262,       973,
   10.2507,      1022,
   10.2753,       991,
   10.2998,      1000,
   10.3243,       940,
   10.3489,      1057,
   10.3734,       994,
   10.3979,      1023,
   10.4225,      1091,
    10.447,      1048,
   10.4716,      1030,
   10.4961,      1067,
   10.5206,      1052,
   10.5452,      1049,
   10.5697,      1056,
   10.5942,      1115,
   10.6188,      1124,
   10.6433,      1096,
   10.6678,      1075,
   10.6924,      1153,
   10.7169,      1150,
   10.7415,      1106,
    10.766,      1127,
   10.7905,      1158,
   10.8151,      1065,
   10.8396,      1101,
   10.8641,      1134,
   10.8887,      1151,
   10.9132,      1169,
   10.9377,      1163,
   10.9623,      1208,
   10.9868,      1150,
   11.0113,      1156,
   11.0359,      1142,
   11.0604,      1195,
    11.085,      1252,
   11.1095,      1198,
    11.134,      1243,
   11.1586,      1243,
   11.1831,      1236,
   11.2076,      1231,
   11.2322,      1258,
   11.2567,      1211,
   11.2812,      1234,
   11.3058,      1274,
   11.3303,      1395,
   11.3549,      1423,
   11.3794,      1476,
   11.4039,      1527,
   11.4285,      1751,
    11.453,      1883,
   11.4775,      2092,
   11.5021,      2142,
   11.5266,      2271,
   11.5511,      2197,
   11.5757,      1998,
   11.6002,      1869,
   11.6248,      1702,
   11.6493,      1553,
   11.6738,      1487,
   11.6984,      1483,
   11.7229,      1359,
   11.7474,      1234,
    11.772,      1336,
   11.7965,      1268,
    11.821,      1267,
   11.8456,      1253,
   11.8701,      1249,
   11.8946,      1268,
   11.9192,      1246,
   11.9437,      1216,
   11.9683,      1220,
   11.9928,      1218,
   12.0173,      1244,
   12.0419,      1303,
   12.0664,      1235,
   12.0909,      1285,
   12.1155,      1286,
     12.14,      1287,
   12.1645,      1156,
   12.1891,      1325,
   12.2136,      1286,
   12.2382,      1281,
   12.2627,      1324,
   12.2872,      1302,
   12.3118,      1407,
   12.3363,      1468,
   12.3608,      1767,
   12.3854,      1860,
   12.4099,      2035,
   12.4344,      2368,
    12.459,      2609,
   12.4835,      2738,
   12.5081,      2792,
   12.5326,      2764,
   12.5571,      2472,
   12.5817,      2333,
   12.6062,      1990,
   12.6307,      1727,
   12.6553,      1573,
   12.6798,      1481,
   12.7043,      1424,
   12.7289,      1315,
   12.7534,      1316,
    12.778,      1305,
   12.8025,      1257,
    12.827,      1219,
   12.8516,      1155,
   12.8761,      1149,
   12.9006,      1112,
   12.9252,      1194,
   12.9497,      1169,
   12.9742,      1170,
   12.9988,      1172,
   13.0233,      1163,
   13.0478,      1144,
   13.0724,      1155,
   13.0969,      1130,
   13.1215,      1185,
    13.146,      1087,
   13.1705,      1141,
   13.1951,      1105,
   13.2196,      1082,
   13.2441,      1157,
   13.2687,      1065,
   13.2932,      1068,
   13.3177,      1104,
   13.3423,      1080,
   13.3668,      1121,
   13.3914,      1174,
   13.4159,      1192,
   13.4404,      1229,
    13.465,      1254,
   13.4895,      1344,
    13.514,      1598,
   13.5386,      1833,
   13.5631,      2004,
   13.5876,      1901,
   13.6122,      1774,
   13.6367,      1638,
   13.6613,      1438,
   13.6858,      1304,
   13.7103,      1254,
   13.7349,      1184,
   13.7594,      1087,
   13.7839,      1088,
   13.8085,      1079,
    13.833,      1041,
   13.8575,      1068,
   13.8821,      1060,
   13.9066,      1075,
   13.9311,      1043,
   13.9557,      1039,
   13.9802,      1073,
   14.0048,      1031,
   14.0293,      1003,
   14.0538,      1012,
   14.0784,       989,
   14.1029,      1028,
   14.1274,       980,
    14.152,      1027,
   14.1765,      1030,
    14.201,       960,
   14.2256,       985,
   14.2501,       949,
   14.2747,       979,
   14.2992,      1003,
   14.3237,       967,
   14.3483,       923,
   14.3728,      1001,
   14.3973,       987,
   14.4219,      1027,
   14.4464,      1018,
   14.4709,       983,
   14.4955,       985,
     14.52,      1037,
   14.5446,      1059,
   14.5691,      1114,
   14.5936,      1099,
   14.6182,       987,
   14.6427,      1064,
   14.6672,      1013,
   14.6918,      1036,
   14.7163,      1000,
   14.7408,      1005,
   14.7654,      1035,
   14.7899,       972,
   14.8144,      1064,
    14.839,      1057,
   14.8635,      1146,
   14.8881,      1233,
   14.9126,      1284,
   14.9371,      1464,
   14.9617,      1641,
   14.9862,      1732,
   15.0107,      2064,
   15.0353,      2244,
   15.0598,      2261,
   15.0843,      2181,
   15.1089,      2216,
   15.1334,      2029,
    15.158,      1923,
   15.1825,      1731,
    15.207,      1488,
   15.2316,      1275,
   15.2561,      1275,
   15.2806,      1096,
   15.3052,      1045,
   15.3297,      1031,
   15.3542,       921,
   15.3788,       928,
   15.4033,       948,
   15.4279,       947,
   15.4524,       833,
   15.4769,       853,
   15.5015,       928,
    15.526,       864,
   15.5505,       826,
   15.5751,       843,
   15.5996,       868,
   15.6241,       933,
   15.6487,       781,
   15.6732,       866,
   15.6977,       812,
   15.7223,       815,
   15.7468,       819,
   15.7714,       828,
   15.7959,       768,
   15.8204,       721,
    15.845,       772,
   15.8695,       813,
    15.894,       812,
   15.9186,       797,
   15.9431,       766,
   15.9676,       803,
   15.9922,       752,
   16.0167,       759,
   16.0413,       735,
   16.0658,       752,
   16.0903,       730,
   16.1149,       736,
   16.1394,       785,
   16.1639,       750,
   16.1885,       759,
    16.213,       747,
   16.2375,       739,
   16.2621,       732,
   16.2866,       780,
   16.3112,       760,
   16.3357,       755,
   16.3602,       793,
   16.3848,       727,
   16.4093,       754,
   16.4338,       758,
   16.4584,       802,
   16.4829,       809,
   16.5074,       812,
    16.532,       802,
   16.5565,       777,
    16.581,       788,
   16.6056,       744,
   16.6301,       703,
   16.6547,       681,
   16.6792,       734,
   16.7037,       690,
   16.7283,       647,
   16.7528,       683,
   16.7773,       673,
   16.8019,       681,
   16.8264,       705,
   16.8509,       663,
   16.8755,       627,
      16.9,       705,
   16.9246,       673,
   16.9491,       699,
   16.9736,       689,
   16.9982,       663,
   17.0227,       657,
   17.0472,       651,
   17.0718,       633,
   17.0963,       655,
   17.1208,       671,
   17.1454,       686,
   17.1699,       659,
   17.1945,       623,
    17.219,       685,
   17.2435,       624,
   17.2681,       689,
   17.2926,       674,
   17.3171,       673,
   17.3417,       681,
   17.3662,       614,
   17.3907,       685,
   17.4153,       713,
   17.4398,       677,
   17.4643,       690,
   17.4889,       707,
   17.5134,       646,
    17.538,       684,
   17.5625,       669,
    17.587,       692,
   17.6116,       725,
   17.6361,       701,
   17.6606,       760,
   17.6852,       763,
   17.7097,       783,
   17.7342,       821,
   17.7588,       772,
   17.7833,       827,
   17.8079,       800,
   17.8324,       778,
   17.8569,       765,
   17.8815,       773,
    17.906,       754,
   17.9305,       785,
   17.9551,       815,
   17.9796,       828,
   18.0041,       922,
   18.0287,       846,
   18.0532,       830,
   18.0778,       866,
   18.1023,       813,
   18.1268,       792,
   18.1514,       770,
   18.1759,       728,
   18.2004,       736,
    18.225,       744,
   18.2495,       690,
    18.274,       664,
   18.2986,       673,
   18.3231,       681,
   18.3476,       695,
   18.3722,       667,
   18.3967,       667,
   18.4213,       687,
   18.4458,       645,
   18.4703,       670,
   18.4949,       730,
   18.5194,       691,
   18.5439,       682,
   18.5685,       698,
    18.593,       705,
   18.6175,       711,
   18.6421,       696,
   18.6666,       658,
   18.6912,       698,
   18.7157,       663,
   18.7402,       641,
   18.7648,       687,
   18.7893,       666,
   18.8138,       662,
   18.8384,       648,
   18.8629,       707,
   18.8874,       667,
    18.912,       681,
   18.9365,       659,
   18.9611,       705,
   18.9856,       707,
   19.0101,       700,
   19.0347,       686,
   19.0592,       716,
   19.0837,       725,
   19.1083,       715,
   19.1328,       667,
   19.1573,       676,
   19.1819,       677,
   19.2064,       628,
    19.231,       707,
   19.2555,       662,
     19.28,       717,
   19.3046,       642,
   19.3291,       724,
   19.3536,       762,
   19.3782,       733,
   19.4027,       778,
   19.4272,       823,
   19.4518,       833,
   19.4763,       817,
   19.5008,       766,
   19.5254,       744,
   19.5499,       806,
   19.5745,       770,
    19.599,       819,
   19.6235,       887,
   19.6481,       849,
   19.6726,       856,
   19.6971,       838,
   19.7217,       831,
   19.7462,       904,
   19.7707,       979,
   19.7953,       956,
   19.8198,      1100,
   19.8444,      1208,
   19.8689,      1291,
   19.8934,      1445,
    19.918,      1453,
   19.9425,      1417,
    19.967,      1453,
   19.9916,      1382,
   20.0161,      1245,
   20.0406,      1245,
   20.0652,      1148,
   20.0897,      1015,
   20.1143,       950,
   20.1388,       823,
   20.1633,       859,
   20.1879,       786,
   20.2124,       753,
   20.2369,       693,
   20.2615,       688,
    20.286,       711,
   20.3105,       685,
   20.3351,       604,
   20.3596,       643,
   20.3841,       640,
   20.4087,       686,
   20.4332,       650,
   20.4578,       647,
   20.4823,       618,
   20.5068,       654,
   20.5314,       656,
   20.5559,       665,
   20.5804,       663,
    20.605,       706,
   20.6295,       651,
    20.654,       650,
   20.6786,       665,
   20.7031,       643,
   20.7277,       692,
   20.7522,       643,
   20.7767,       659,
   20.8013,       670,
   20.8258,       592,
   20.8503,       642,
   20.8749,       618,
   20.8994,       605,
   20.9239,       612,
   20.9485,       610,
    20.973,       639,
   20.9976,       615,
   21.0221,       643,
   21.0466,       588,
   21.0712,       585,
   21.0957,       620,
   21.1202,       592,
   21.1448,       634,
   21.1693,       615,
   21.1938,       654,
   21.2184,       618,
   21.2429,       620,
   21.2674,       695,
    21.292,       641,
   21.3165,       664,
   21.3411,       717,
   21.3656,       764,
   21.3901,       724,
   21.4147,       729,
   21.4392,       709,
   21.4637,       744,
   21.4883,       754,
   21.5128,       751,
   21.5373,       740,
   21.5619,       783,
   21.5864,       760,
    21.611,       685,
   21.6355,       683,
     21.66,       684,
   21.6846,       683,
   21.7091,       724,
   21.7336,       682,
   21.7582,       696,
   21.7827,       750,
   21.8072,       681,
   21.8318,       645,
   21.8563,       655,
   21.8809,       660,
   21.9054,       746,
   21.9299,       759,
   21.9545,       774,
    21.979,       814,
   22.0035,       835,
   22.0281,       823,
   22.0526,       819,
   22.0771,       871,
   22.1017,       930,
   22.1262,       926,
   22.1507,       961,
   22.1753,       894,
   22.1998,       886,
   22.2244,       893,
   22.2489,       882,
   22.2734,       853,
    22.298,       906,
   22.3225,       837,
    22.347,       796,
   22.3716,       800,
   22.3961,       790,
   22.4206,       801,
   22.4452,       823,
   22.4697,       884,
   22.4943,       980,
   22.5188,      1053,
   22.5433,      1221,
   22.5679,      1228,
   22.5924,      1254,
   22.6169,      1313,
   22.6415,      1253,
    22.666,      1219,
   22.6905,      1107,
   22.7151,      1114,
   22.7396,       996,
   22.7642,      1008,
   22.7887,       919,
   22.8132,       853,
   22.8378,       759,
   22.8623,       724,
   22.8868,       731,
   22.9114,       636,
   22.9359,       670,
   22.9604,       759,
    22.985,       680,
   23.0095,       640,
    23.034,       704,
   23.0586,       649,
   23.0831,       670,
   23.1077,       672,
   23.1322,       662,
   23.1567,       637,
   23.1813,       604,
   23.2058,       597,
   23.2303,       603,
   23.2549,       599,
   23.2794,       611,
   23.3039,       583,
   23.3285,       599,
    23.353,       586,
   23.3776,       575,
   23.4021,       602,
   23.4266,       603,
   23.4512,       578,
   23.4757,       577,
   23.5002,       587,
   23.5248,       610,
   23.5493,       614,
   23.5738,       601,
   23.5984,       638,
   23.6229,       599,
   23.6475,       580,
    23.672,       584,
   23.6965,       603,
   23.7211,       567,
   23.7456,       611,
   23.7701,       550,
   23.7947,       616,
   23.8192,       624,
   23.8437,       611,
   23.8683,       560,
   23.8928,       563,
   23.9173,       557,
   23.9419,       602,
   23.9664,       590,
    23.991,       614,
   24.0155,       584,
     24.04,       624,
   24.0646,       581,
   24.0891,       621,
   24.1136,       556,
   24.1382,       588,
   24.1627,       571,
   24.1872,       590,
   24.2118,       600,
   24.2363,       601,
   24.2609,       569,
   24.2854,       600,
   24.3099,       637,
   24.3345,       615,
    24.359,       604,
   24.3835,       610,
   24.4081,       619,
   24.4326,       616,
   24.4571,       582,
   24.4817,       600,
   24.5062,       621,
   24.5308,       629,
   24.5553,       585,
   24.5798,       665,
   24.6044,       636,
   24.6289,       633,
   24.6534,       656,
    24.678,       681,
   24.7025,       672,
    24.727,       651,
   24.7516,       643,
   24.7761,       646,
   24.8006,       677,
   24.8252,       623,
   24.8497,       654,
   24.8743,       685,
   24.8988,       759,
   24.9233,       767,
   24.9479,       806,
   24.9724,       878,
   24.9969,       868,
   25.0215,       864,
    25.046,       876,
   25.0705,       874,
   25.0951,       843,
   25.1196,       821,
   25.1442,       838,
   25.1687,       794,
   25.1932,       816,
   25.2178,       738,
   25.2423,       754,
   25.2668,       727,
   25.2914,       743,
   25.3159,       700,
   25.3404,       720,
    25.365,       736,
   25.3895,       681,
   25.4141,       652,
   25.4386,       639,
   25.4631,       690,
   25.4877,       653,
   25.5122,       695,
   25.5367,       648,
   25.5613,       637,
   25.5858,       655,
   25.6103,       633,
   25.6349,       648,
   25.6594,       672,
   25.6839,       696,
   25.7085,       658,
    25.733,       688,
   25.7576,       664,
   25.7821,       682,
   25.8066,       702,
   25.8312,       701,
   25.8557,       639,
   25.8802,       614,
   25.9048,       627,
   25.9293,       662,
   25.9538,       644,
   25.9784,       614,
   26.0029,       624,
   26.0275,       637,
    26.052,       627,
   26.0765,       603,
   26.1011,       624,
   26.1256,       592,
   26.1501,       636,
   26.1747,       587,
   26.1992,       624,
   26.2237,       606,
   26.2483,       604,
   26.2728,       573,
   26.2974,       572,
   26.3219,       633,
   26.3464,       644,
    26.371,       584,
   26.3955,       626,
     26.42,       613,
   26.4446,       603,
   26.4691,       624,
   26.4936,       617,
   26.5182,       619,
   26.5427,       642,
   26.5673,       684,
   26.5918,       613,
   26.6163,       639,
   26.6409,       652,
   26.6654,       702,
   26.6899,       628,
   26.7145,       637,
    26.739,       745,
   26.7635,       676,
   26.7881,       661,
   26.8126,       720,
   26.8371,       678,
   26.8617,       673,
   26.8862,       709,
   26.9108,       708,
   26.9353,       691,
   26.9598,       645,
   26.9844,       695,
   27.0089,       655,
   27.0334,       741,
    27.058,       711,
   27.0825,       679,
    27.107,       645,
   27.1316,       681,
   27.1561,       663,
   27.1807,       682,
   27.2052,       683,
   27.2297,       667,
   27.2543,       673,
   27.2788,       693,
   27.3033,       669,
   27.3279,       636,
   27.3524,       648,
   27.3769,       677,
   27.4015,       702,
    27.426,       643,
   27.4506,       641,
   27.4751,       639,
   27.4996,       600,
   27.5242,       604,
   27.5487,       643,
   27.5732,       660,
   27.5978,       656,
   27.6223,       659,
   27.6468,       634,
   27.6714,       645,
   27.6959,       586,
   27.7204,       622,
    27.745,       663,
   27.7695,       604,
   27.7941,       642,
   27.8186,       648,
   27.8431,       694,
   27.8677,       691,
   27.8922,       677,
   27.9167,       671,
   27.9413,       671,
   27.9658,       645,
   27.9903,       606,
   28.0149,       676,
   28.0394,       657,
    28.064,       686,
   28.0885,       667,
    28.113,       617,
   28.1376,       665,
   28.1621,       686,
   28.1866,       647,
   28.2112,       669,
   28.2357,       593,
   28.2602,       675,
   28.2848,       627,
   28.3093,       637,
   28.3339,       604,
   28.3584,       648,
   28.3829,       642,
   28.4075,       651,
    28.432,       630,
   28.4565,       675,
   28.4811,       640,
   28.5056,       635,
   28.5301,       654,
   28.5547,       633,
   28.5792,       640,
   28.6037,       677,
   28.6283,       618,
   28.6528,       655,
   28.6774,       656,
   28.7019,       664,
   28.7264,       632,
    28.751,       621,
   28.7755,       662,
      28.8,       665,
   28.8246,       637,
   28.8491,       672,
   28.8736,       638,
   28.8982,       638,
   28.9227,       617,
   28.9473,       624,
   28.9718,       607,
   28.9963,       605,
   29.0209,       647,
   29.0454,       648,
   29.0699,       701,
   29.0945,       618,
    29.119,       649,
   29.1435,       595,
   29.1681,       610,
   29.1926,       599,
   29.2172,       604,
   29.2417,       594,
   29.2662,       630,
   29.2908,       644,
   29.3153,       584,
   29.3398,       629,
   29.3644,       612,
   29.3889,       613,
   29.4134,       586,
    29.438,       615,
   29.4625,       591,
    29.487,       557,
   29.5116,       645,
   29.5361,       564,
   29.5607,       609,
   29.5852,       605,
   29.6097,       555,
   29.6343,       630,
   29.6588,       590,
   29.6833,       636,
   29.7079,       622,
   29.7324,       612,
   29.7569,       633,
   29.7815,       595,
    29.806,       595,
   29.8306,       596,
   29.8551,       644,
   29.8796,       624,
   29.9042,       620,
   29.9287,       612,
   29.9532,       639,
   29.9778,       596,
   30.0023,       649,
   30.0268,       601,
   30.0514,       617,
   30.0759,       640,
   30.1005,       629,
    30.125,       606,
   30.1495,       621,
   30.1741,       633,
   30.1986,       628,
   30.2231,       679,
   30.2477,       674,
   30.2722,       590,
   30.2967,       641,
   30.3213,       688,
   30.3458,       646,
   30.3703,       661,
   30.3949,       635,
   30.4194,       675,
    30.444,       657,
   30.4685,       638,
    30.493,       575,
   30.5176,       590,
   30.5421,       627,
   30.5666,       568,
   30.5912,       605,
   30.6157,       606,
   30.6402,       621,
   30.6648,       597,
   30.6893,       594,
   30.7139,       632,
   30.7384,       658,
   30.7629,       638,
   30.7875,       570,
    30.812,       625,
   30.8365,       622,
   30.8611,       615,
   30.8856,       647,
   30.9101,       655,
   30.9347,       594,
   30.9592,       609,
   30.9838,       628,
   31.0083,       554,
   31.0328,       600,
   31.0574,       579,
   31.0819,       575,
   31.1064,       600,
    31.131,       581,
   31.1555,       599,
     31.18,       602,
   31.2046,       632,
   31.2291,       593,
   31.2536,       576,
   31.2782,       599,
   31.3027,       604,
   31.3273,       587,
   31.3518,       603,
   31.3763,       632,
   31.4009,       621,
   31.4254,       651,
   31.4499,       618,
   31.4745,       630,
    31.499,       630,
   31.5235,       670,
   31.5481,       641,
   31.5726,       655,
   31.5972,       637,
   31.6217,       651,
   31.6462,       655,
   31.6708,       649,
   31.6953,       676,
   31.7198,       682,
   31.7444,       608,
   31.7689,       655,
   31.7934,       676,
    31.818,       623,
   31.8425,       624,
   31.8671,       604,
   31.8916,       598,
   31.9161,       598,
   31.9407,       629,
   31.9652,       652,
   31.9897,       620,
   32.0143,       617,
   32.0388,       657,
   32.0633,       702,
   32.0879,       627,
   32.1124,       664,
   32.1369,       668,
   32.1615,       681,
    32.186,       722,
   32.2106,       656,
   32.2351,       659,
   32.2596,       692,
   32.2842,       641,
   32.3087,       632,
   32.3332,       621,
   32.3578,       615,
   32.3823,       595,
   32.4068,       617,
   32.4314,       548,
   32.4559,       571,
   32.4805,       602,
    32.505,       609,
   32.5295,       537,
   32.5541,       612,
   32.5786,       566,
   32.6031,       513,
   32.6277,       580,
   32.6522,       545,
   32.6767,       560,
   32.7013,       559,
   32.7258,       581,
   32.7504,       538,
   32.7749,       540,
   32.7994,       556,
    32.824,       573,
   32.8485,       540,
    32.873,       551,
   32.8976,       560,
   32.9221,       557,
   32.9466,       591,
   32.9712,       583,
   32.9957,       585,
   33.0203,       592,
   33.0448,       598,
   33.0693,       559,
   33.0939,       533,
   33.1184,       530,
   33.1429,       551,
   33.1675,       557,
    33.192,       533,
   33.2165,       603,
   33.2411,       589,
   33.2656,       523,
   33.2901,       548,
   33.3147,       564,
   33.3392,       539,
   33.3638,       608,
   33.3883,       622,
   33.4128,       574,
   33.4374,       553,
   33.4619,       550,
   33.4864,       560,
    33.511,       532,
   33.5355,       576,
     33.56,       555,
   33.5846,       531,
   33.6091,       565,
   33.6337,       543,
   33.6582,       551,
   33.6827,       531,
   33.7073,       569,
   33.7318,       519,
   33.7563,       572,
   33.7809,       563,
   33.8054,       510,
   33.8299,       553,
   33.8545,       515,
    33.879,       558,
   33.9036,       521,
   33.9281,       520,
   33.9526,       513,
   33.9772,       524,
   34.0017,       536,
   34.0262,       532,
   34.0508,       535,
   34.0753,       509,
   34.0998,       552,
   34.1244,       524,
   34.1489,       511,
   34.1734,       510,
    34.198,       551,
   34.2225,       515,
   34.2471,       517,
   34.2716,       558,
   34.2961,       550,
   34.3207,       501,
   34.3452,       530,
   34.3697,       532,
   34.3943,       535,
   34.4188,       537,
   34.4433,       510,
   34.4679,       530,
   34.4924,       458,
    34.517,       493,
   34.5415,       511,
    34.566,       519,
   34.5906,       562,
   34.6151,       509,
   34.6396,       515,
   34.6642,       502,
   34.6887,       509,
   34.7132,       572,
   34.7378,       558,
   34.7623,       507,
   34.7869,       516,
   34.8114,       582,
   34.8359,       514,
   34.8605,       538,
    34.885,       532,
   34.9095,       530,
   34.9341,       506,
   34.9586,       558,
   34.9831,       596,
   35.0077,       530,
   35.0322,       512,
   35.0567,       542,
   35.0813,       492,
   35.1058,       551,
   35.1304,       528,
   35.1549,       534,
   35.1794,       548,
    35.204,       504,
   35.2285,       494,
    35.253,       537,
   35.2776,       516,
   35.3021,       513,
   35.3266,       541,
   35.3512,       498,
   35.3757,       497,
   35.4003,       498,
   35.4248,       503,
   35.4493,       509,
   35.4739,       517,
   35.4984,       521,
   35.5229,       500,
   35.5475,       503,
    35.572,       511,
   35.5965,       505,
   35.6211,       529,
   35.6456,       505,
   35.6702,       502,
   35.6947,       522,
   35.7192,       488,
   35.7438,       529,
   35.7683,       528,
   35.7928,       501,
   35.8174,       535,
   35.8419,       536,
   35.8664,       500,
    35.891,       510,
   35.9155,       547,
     35.94,       511,
   35.9646,       524,
   35.9891,       522,
   36.0137,       568,
   36.0382,       538,
   36.0627,       529,
   36.0873,       526,
   36.1118,       526,
   36.1363,       489,
   36.1609,       575,
   36.1854,       525,
   36.2099,       578,
   36.2345,       531,
    36.259,       529,
   36.2836,       510,
   36.3081,       516,
   36.3326,       564,
   36.3572,       529,
   36.3817,       563,
   36.4062,       533,
   36.4308,       583,
   36.4553,       553,
   36.4798,       505,
   36.5044,       505,
   36.5289,       491,
   36.5535,       535,
    36.578,       507,
   36.6025,       495,
   36.6271,       519,
   36.6516,       485,
   36.6761,       486,
   36.7007,       483,
   36.7252,       466,
   36.7497,       470,
   36.7743,       451,
   36.7988,       452,
   36.8233,       464,
   36.8479,       437,
   36.8724,       470,
    36.897,       449,
   36.9215,       461,
    36.946,       473,
   36.9706,       474,
   36.9951,       462,
   37.0196,       435,
   37.0442,       457,
   37.0687,       394,
   37.0932,       457,
   37.1178,       465,
   37.1423,       449,
   37.1669,       479,
   37.1914,       465,
   37.2159,       454,
   37.2405,       418,
    37.265,       436,
   37.2895,       432,
   37.3141,       416,
   37.3386,       434,
   37.3631,       456,
   37.3877,       460,
   37.4122,       449,
   37.4368,       468,
   37.4613,       457,
   37.4858,       458,
   37.5104,       447,
   37.5349,       461,
   37.5594,       488,
    37.584,       428,
   37.6085,       438,
    37.633,       486,
   37.6576,       417,
   37.6821,       457,
   37.7066,       456,
   37.7312,       445,
   37.7557,       456,
   37.7803,       469,
   37.8048,       448,
   37.8293,       438,
   37.8539,       430,
   37.8784,       449,
   37.9029,       445,
   37.9275,       398,
    37.952,       409,
   37.9765,       430,
   38.0011,       404,
   38.0256,       407,
   38.0502,       412,
   38.0747,       434,
   38.0992,       386,
   38.1238,       420,
   38.1483,       397,
   38.1728,       419,
   38.1974,       435,
   38.2219,       461,
   38.2464,       377,
    38.271,       408,
   38.2955,       411,
   38.3201,       369,
   38.3446,       439,
   38.3691,       392,
   38.3937,       397,
   38.4182,       398,
   38.4427,       417,
   38.4673,       410,
   38.4918,       403,
   38.5163,       386,
   38.5409,       387,
   38.5654,       418,
   38.5899,       419,
   38.6145,       390,
    38.639,       386,
   38.6636,       405,
   38.6881,       448,
   38.7126,       390,
   38.7372,       393,
   38.7617,       393,
   38.7862,       380,
   38.8108,       386,
   38.8353,       428,
   38.8598,       395,
   38.8844,       367,
   38.9089,       391,
   38.9335,       439,
    38.958,       425,
   38.9825,       398,
   39.0071,       378,
   39.0316,       399,
   39.0561,       400,
   39.0807,       402,
   39.1052,       404,
   39.1297,       397,
   39.1543,       399,
   39.1788,       435,
   39.2034,       403,
   39.2279,       406,
   39.2524,       416,
    39.277,       413,
   39.3015,       387,
    39.326,       449,
   39.3506,       436,
   39.3751,       389,
   39.3996,       386,
   39.4242,       418,
   39.4487,       436,
   39.4732,       400,
   39.4978,       401,
   39.5223,       443,
   39.5469,       470,
   39.5714,       438,
   39.5959,       443,
   39.6205,       446,
    39.645,       468,
   39.6695,       461,
   39.6941,       499,
   39.7186,       491,
   39.7431,       447,
   39.7677,       486,
   39.7922,       443,
   39.8168,       462,
   39.8413,       433,
   39.8658,       451,
   39.8904,       447,
   39.9149,       430,
   39.9394,       428,
    39.964,       447,
   39.9885,       450,
