;RAW4.00
[RawHeader]
Date=11/29/2021
EstimatedTotalTime=646.01
FurtherDQLReading=0
HardwareIndicator=65519
MeasuredTotalTime=646.01
MeasurementFlag=1
NumberOfMeasuredRanges=1
NumberOfRanges=1
Time=13:38:12

[VarInfo]
Type=USER
Flags=0
Value=Lab Manager

[VarInfo]
Type=SAMPLEID
Flags=0
Value=

[VarInfo]
Type=COMMENT
Flags=0
Value=

[VarInfo]
Type=UTF
Flags=0
Value=

[VarInfo]
Type=CREATOR
Flags=0
Value=BrmlToV4Converter

[VarInfo]
Type=CREATOR_VERSION
Flags=0
Value=7.3.1.0

[HardwareConfiguration]
AbsorptionFactor=9999
ActivateAbsorber=0
Alpha1=0.7093
Alpha2=0.71359
AlphaAverage=0.71073
AlphaRatio=0.5
Analyzer=0
Anode=Mo
AntiScatteringSlit=18
BeamOpticsFlags=0
Beta=0.63229
BetaRelativeIntensity=0
DeactivateAbsorber=0
DetectorSlit=9999
DivergenceSlit=0.2
GoniometerControl=0
GoniometerDiameter=560
GoniometerModel=512
GoniometerStage=7
Monochromator=0
NearSampleSlit=9999
PrimarySollerSlit=2.5
SampleChanger=0
SecondSollerSlit=9999
SynchronousAxis=0
ThinFilmAttachment=9999
WaveUnit=A

[RangeHeader]
ActuallyUsedLambda=0.71073
AdditionalDetectorMask=257
DataRecordLength=4
DelayTime=0
DisplayPlaneNumber=0
EstimatedScanTime=646
ExtraParametersMask=0
GeneratorCurrent=40
GeneratorVoltage=50
Increment=0.0245361
Increment3=0
NumberOfCompletedData=1427
NumberOfCounts=1
NumberOfDetectors=0
NumberOfDrives=2
NumberOfEncoderDrives=0
NumberOfMeasuredData=1427
NumberOfVaryingParameters=0
RangeStartTime=0
RotationSpeed=60
ScanMode=1
ScanType=Locked Coupled
SimulatedMeasConditions=0
SlitChangerIn=0
SmootingWidth=0
Start=5
Steps=1427
SynchronousRotation=0
Time=76.8

[VarInfo]
Type=PSD_DISCRIM
Flags=0
Value=0.488;0.518

[PSD]
ActualTwoTheta=9999
FirstUsedChannel=0
FixedPSD=0
PSDOpening=2.94433
PSDType=5

[Drive]
DriveFlags=1
DriveName=2Theta
DriveNumber=2
DriveOffset=0
OffsetIndex=0
OscillationAmplitude=0
OscillationSpeed=0
StartPosition=5

[Drive]
DriveFlags=1
DriveName=Theta
DriveNumber=1
DriveOffset=0
OffsetIndex=0
OscillationAmplitude=0
OscillationSpeed=0
StartPosition=2.5

[Data]
     Angle,       PSD,
         5,      1194,
   5.02454,      1145,
   5.04907,      1104,
   5.07361,      1204,
   5.09814,      1139,
   5.12268,      1200,
   5.14722,      1144,
   5.17175,      1162,
   5.19629,      1192,
   5.22083,      1141,
   5.24536,      1207,
    5.2699,      1145,
   5.29443,      1090,
   5.31897,      1179,
   5.34351,      1063,
   5.36804,      1205,
   5.39258,      1133,
   5.41711,      1082,
   5.44165,      1168,
   5.46619,      1105,
   5.49072,      1159,
   5.51526,      1121,
   5.53979,      1113,
   5.56433,      1126,
   5.58887,      1053,
    5.6134,      1098,
   5.63794,      1115,
   5.66248,      1084,
   5.68701,      1149,
   5.71155,      1047,
   5.73608,      1065,
   5.76062,      1066,
   5.78516,      1100,
   5.80969,      1103,
   5.83423,      1082,
   5.85876,      1108,
    5.8833,      1074,
   5.90784,      1042,
   5.93237,      1110,
   5.95691,       995,
   5.98144,      1016,
   6.00598,      1018,
   6.03052,      1004,
   6.05505,      1075,
   6.07959,       989,
   6.10413,      1063,
   6.12866,       959,
    6.1532,      1070,
   6.17773,      1035,
   6.20227,       954,
   6.22681,      1024,
   6.25134,      1010,
   6.27588,       980,
   6.30041,       954,
   6.32495,       933,
   6.34949,      1020,
   6.37402,       975,
   6.39856,       956,
    6.4231,       983,
   6.44763,       879,
   6.47217,      1028,
    6.4967,       986,
   6.52124,       965,
   6.54578,       986,
   6.57031,       863,
   6.59485,       964,
   6.61938,       901,
   6.64392,       898,
   6.66846,       950,
   6.69299,       859,
   6.71753,       966,
   6.74206,       874,
    6.7666,       876,
   6.79114,       890,
   6.81567,       853,
   6.84021,       930,
   6.86475,       895,
   6.88928,       813,
   6.91382,       942,
   6.93835,       832,
   6.96289,       858,
   6.98743,       898,
   7.01196,       895,
    7.0365,       963,
   7.06103,       814,
   7.08557,       890,
   7.11011,       866,
   7.13464,       899,
   7.15918,       884,
   7.18371,       832,
   7.20825,       903,
   7.23279,       885,
   7.25732,       857,
   7.28186,       876,
    7.3064,       809,
   7.33093,       848,
   7.35547,       820,
      7.38,       782,
   7.40454,       920,
   7.42908,       792,
   7.45361,       855,
   7.47815,       840,
   7.50268,       818,
   7.52722,       896,
   7.55176,       766,
   7.57629,       826,
   7.60083,       799,
   7.62536,       811,
    7.6499,       893,
   7.67444,       758,
   7.69897,       814,
   7.72351,       753,
   7.74805,       760,
   7.77258,       811,
   7.79712,       689,
   7.82165,       779,
   7.84619,       689,
   7.87073,       696,
   7.89526,       735,
    7.9198,       645,
   7.94433,       697,
   7.96887,       618,
   7.99341,       549,
   8.01794,       553,
   8.04248,       530,
   8.06702,       628,
   8.09155,       590,
   8.11609,       542,
   8.14062,       651,
   8.16516,       519,
    8.1897,       624,
   8.21423,       573,
   8.23877,       552,
    8.2633,       636,
   8.28784,       536,
   8.31238,       601,
   8.33691,       595,
   8.36145,       556,
   8.38598,       565,
   8.41052,       544,
   8.43506,       565,
   8.45959,       585,
   8.48413,       561,
   8.50867,       637,
    8.5332,       536,
   8.55774,       586,
   8.58227,       539,
   8.60681,       526,
   8.63135,       664,
   8.65588,       494,
   8.68042,       596,
   8.70495,       579,
   8.72949,       593,
   8.75403,       637,
   8.77856,       546,
    8.8031,       576,
   8.82763,       591,
   8.85217,       601,
   8.87671,       629,
   8.90124,       543,
   8.92578,       652,
   8.95032,       600,
   8.97485,       616,
   8.99939,       626,
   9.02392,       549,
   9.04846,       654,
     9.073,       599,
   9.09753,       592,
   9.12207,       658,
    9.1466,       611,
   9.17114,       705,
   9.19568,       620,
   9.22021,       684,
   9.24475,       711,
   9.26929,       656,
   9.29382,       687,
   9.31836,       702,
   9.34289,       654,
   9.36743,       810,
   9.39197,       651,
    9.4165,       816,
   9.44104,       729,
   9.46557,       744,
   9.49011,       804,
   9.51465,       792,
   9.53918,       858,
   9.56372,       752,
   9.58825,       770,
   9.61279,       877,
   9.63733,       835,
   9.66186,       908,
    9.6864,       928,
   9.71094,       955,
   9.73547,      1045,
   9.76001,       950,
   9.78454,      1073,
   9.80908,       995,
   9.83362,       953,
   9.85815,       983,
   9.88269,       931,
   9.90722,       977,
   9.93176,       944,
    9.9563,       970,
   9.98083,       977,
   10.0054,       955,
   10.0299,       992,
   10.0544,      1025,
    10.079,      1040,
   10.1035,      1094,
    10.128,      1010,
   10.1526,      1060,
   10.1771,      1052,
   10.2017,      1100,
   10.2262,      1073,
   10.2507,      1076,
   10.2753,      1161,
   10.2998,      1070,
   10.3243,      1101,
   10.3489,      1153,
   10.3734,      1127,
   10.3979,      1188,
   10.4225,      1137,
    10.447,      1120,
   10.4716,      1149,
   10.4961,      1206,
   10.5206,      1158,
   10.5452,      1223,
   10.5697,      1207,
   10.5942,      1254,
   10.6188,      1258,
   10.6433,      1313,
   10.6678,      1252,
   10.6924,      1299,
   10.7169,      1293,
   10.7415,      1239,
    10.766,      1281,
   10.7905,      1214,
   10.8151,      1233,
   10.8396,      1297,
   10.8641,      1292,
   10.8887,      1311,
   10.9132,      1263,
   10.9377,      1318,
   10.9623,      1334,
   10.9868,      1268,
   11.0113,      1275,
   11.0359,      1285,
   11.0604,      1302,
    11.085,      1355,
   11.1095,      1330,
    11.134,      1343,
   11.1586,      1398,
   11.1831,      1408,
   11.2076,      1305,
   11.2322,      1373,
   11.2567,      1391,
   11.2812,      1402,
   11.3058,      1379,
   11.3303,      1488,
   11.3549,      1509,
   11.3794,      1521,
   11.4039,      1684,
   11.4285,      1741,
    11.453,      1788,
   11.4775,      1971,
   11.5021,      2011,
   11.5266,      2000,
   11.5511,      2012,
   11.5757,      1919,
   11.6002,      1832,
   11.6248,      1711,
   11.6493,      1630,
   11.6738,      1513,
   11.6984,      1433,
   11.7229,      1437,
   11.7474,      1391,
    11.772,      1463,
   11.7965,      1436,
    11.821,      1388,
   11.8456,      1381,
   11.8701,      1405,
   11.8946,      1333,
   11.9192,      1445,
   11.9437,      1389,
   11.9683,      1459,
   11.9928,      1305,
   12.0173,      1436,
   12.0419,      1429,
   12.0664,      1401,
   12.0909,      1423,
   12.1155,      1402,
     12.14,      1360,
   12.1645,      1404,
   12.1891,      1486,
   12.2136,      1436,
   12.2382,      1442,
   12.2627,      1404,
   12.2872,      1431,
   12.3118,      1582,
   12.3363,      1584,
   12.3608,      1610,
   12.3854,      1719,
   12.4099,      1817,
   12.4344,      2136,
    12.459,      2230,
   12.4835,      2289,
   12.5081,      2398,
   12.5326,      2272,
   12.5571,      2227,
   12.5817,      2038,
   12.6062,      1805,
   12.6307,      1685,
   12.6553,      1600,
   12.6798,      1559,
   12.7043,      1454,
   12.7289,      1428,
   12.7534,      1401,
    12.778,      1318,
   12.8025,      1342,
    12.827,      1293,
   12.8516,      1327,
   12.8761,      1323,
   12.9006,      1294,
   12.9252,      1289,
   12.9497,      1292,
   12.9742,      1305,
   12.9988,      1306,
   13.0233,      1234,
   13.0478,      1309,
   13.0724,      1226,
   13.0969,      1190,
   13.1215,      1272,
    13.146,      1281,
   13.1705,      1201,
   13.1951,      1228,
   13.2196,      1240,
   13.2441,      1217,
   13.2687,      1183,
   13.2932,      1195,
   13.3177,      1255,
   13.3423,      1283,
   13.3668,      1238,
   13.3914,      1240,
   13.4159,      1352,
   13.4404,      1302,
    13.465,      1394,
   13.4895,      1432,
    13.514,      1513,
   13.5386,      1810,
   13.5631,      1840,
   13.5876,      1740,
   13.6122,      1647,
   13.6367,      1550,
   13.6613,      1457,
   13.6858,      1356,
   13.7103,      1290,
   13.7349,      1187,
   13.7594,      1226,
   13.7839,      1146,
   13.8085,      1152,
    13.833,      1179,
   13.8575,      1200,
   13.8821,      1143,
   13.9066,      1092,
   13.9311,      1086,
   13.9557,      1150,
   13.9802,      1111,
   14.0048,      1135,
   14.0293,      1102,
   14.0538,      1105,
   14.0784,      1091,
   14.1029,      1013,
   14.1274,      1067,
    14.152,      1138,
   14.1765,      1117,
    14.201,      1025,
   14.2256,      1099,
   14.2501,      1132,
   14.2747,      1087,
   14.2992,      1019,
   14.3237,      1086,
   14.3483,      1147,
   14.3728,      1095,
   14.3973,      1035,
   14.4219,      1041,
   14.4464,      1058,
   14.4709,      1089,
   14.4955,      1074,
     14.52,      1116,
   14.5446,      1183,
   14.5691,      1125,
   14.5936,      1125,
   14.6182,      1096,
   14.6427,      1090,
   14.6672,      1047,
   14.6918,      1111,
   14.7163,      1063,
   14.7408,      1026,
   14.7654,      1035,
   14.7899,       975,
   14.8144,      1099,
    14.839,      1142,
   14.8635,      1115,
   14.8881,      1233,
   14.9126,      1287,
   14.9371,      1441,
   14.9617,      1455,
   14.9862,      1592,
   15.0107,      1805,
   15.0353,      1933,
   15.0598,      1960,
   15.0843,      1854,
   15.1089,      1822,
   15.1334,      1814,
    15.158,      1694,
   15.1825,      1523,
    15.207,      1338,
   15.2316,      1300,
   15.2561,      1240,
   15.2806,      1082,
   15.3052,      1082,
   15.3297,      1041,
   15.3542,      1027,
   15.3788,      1049,
   15.4033,       987,
   15.4279,      1012,
   15.4524,       923,
   15.4769,       970,
   15.5015,       938,
    15.526,       933,
   15.5505,       969,
   15.5751,       854,
   15.5996,       909,
   15.6241,       920,
   15.6487,       904,
   15.6732,       837,
   15.6977,       852,
   15.7223,       889,
   15.7468,       877,
   15.7714,       883,
   15.7959,       836,
   15.8204,       887,
    15.845,       835,
   15.8695,       839,
    15.894,       867,
   15.9186,       838,
   15.9431,       790,
   15.9676,       826,
   15.9922,       834,
   16.0167,       864,
   16.0413,       850,
   16.0658,       853,
   16.0903,       830,
   16.1149,       804,
   16.1394,       790,
   16.1639,       806,
   16.1885,       766,
    16.213,       827,
   16.2375,       777,
   16.2621,       778,
   16.2866,       819,
   16.3112,       811,
   16.3357,       793,
   16.3602,       802,
   16.3848,       810,
   16.4093,       804,
   16.4338,       827,
   16.4584,       802,
   16.4829,       845,
   16.5074,       835,
    16.532,       798,
   16.5565,       845,
    16.581,       798,
   16.6056,       768,
   16.6301,       808,
   16.6547,       790,
   16.6792,       709,
   16.7037,       738,
   16.7283,       775,
   16.7528,       777,
   16.7773,       752,
   16.8019,       746,
   16.8264,       708,
   16.8509,       740,
   16.8755,       732,
      16.9,       726,
   16.9246,       687,
   16.9491,       728,
   16.9736,       722,
   16.9982,       655,
   17.0227,       709,
   17.0472,       752,
   17.0718,       702,
   17.0963,       681,
   17.1208,       717,
   17.1454,       702,
   17.1699,       762,
   17.1945,       725,
    17.219,       650,
   17.2435,       631,
   17.2681,       724,
   17.2926,       747,
   17.3171,       667,
   17.3417,       760,
   17.3662,       665,
   17.3907,       676,
   17.4153,       686,
   17.4398,       681,
   17.4643,       755,
   17.4889,       693,
   17.5134,       679,
    17.538,       728,
   17.5625,       739,
    17.587,       725,
   17.6116,       720,
   17.6361,       715,
   17.6606,       712,
   17.6852,       774,
   17.7097,       835,
   17.7342,       818,
   17.7588,       777,
   17.7833,       824,
   17.8079,       826,
   17.8324,       803,
   17.8569,       793,
   17.8815,       790,
    17.906,       729,
   17.9305,       763,
   17.9551,       860,
   17.9796,       815,
   18.0041,       816,
   18.0287,       807,
   18.0532,       842,
   18.0778,       844,
   18.1023,       786,
   18.1268,       777,
   18.1514,       803,
   18.1759,       815,
   18.2004,       729,
    18.225,       744,
   18.2495,       703,
    18.274,       693,
   18.2986,       718,
   18.3231,       719,
   18.3476,       678,
   18.3722,       707,
   18.3967,       683,
   18.4213,       740,
   18.4458,       688,
   18.4703,       731,
   18.4949,       720,
   18.5194,       683,
   18.5439,       750,
   18.5685,       726,
    18.593,       750,
   18.6175,       738,
   18.6421,       741,
   18.6666,       704,
   18.6912,       752,
   18.7157,       657,
   18.7402,       711,
   18.7648,       710,
   18.7893,       676,
   18.8138,       667,
   18.8384,       650,
   18.8629,       713,
   18.8874,       672,
    18.912,       701,
   18.9365,       728,
   18.9611,       716,
   18.9856,       650,
   19.0101,       742,
   19.0347,       731,
   19.0592,       799,
   19.0837,       668,
   19.1083,       747,
   19.1328,       682,
   19.1573,       714,
   19.1819,       710,
   19.2064,       765,
    19.231,       728,
   19.2555,       690,
     19.28,       744,
   19.3046,       704,
   19.3291,       747,
   19.3536,       734,
   19.3782,       780,
   19.4027,       814,
   19.4272,       770,
   19.4518,       803,
   19.4763,       758,
   19.5008,       830,
   19.5254,       785,
   19.5499,       801,
   19.5745,       812,
    19.599,       796,
   19.6235,       799,
   19.6481,       783,
   19.6726,       827,
   19.6971,       804,
   19.7217,       829,
   19.7462,       892,
   19.7707,       870,
   19.7953,       929,
   19.8198,       970,
   19.8444,      1071,
   19.8689,      1056,
   19.8934,      1204,
    19.918,      1273,
   19.9425,      1251,
    19.967,      1231,
   19.9916,      1252,
   20.0161,      1180,
   20.0406,      1061,
   20.0652,       979,
   20.0897,       982,
   20.1143,       875,
   20.1388,       838,
   20.1633,       780,
   20.1879,       830,
   20.2124,       749,
   20.2369,       711,
   20.2615,       656,
    20.286,       677,
   20.3105,       706,
   20.3351,       670,
   20.3596,       671,
   20.3841,       670,
   20.4087,       668,
   20.4332,       696,
   20.4578,       666,
   20.4823,       629,
   20.5068,       622,
   20.5314,       708,
   20.5559,       674,
   20.5804,       707,
    20.605,       721,
   20.6295,       677,
    20.654,       667,
   20.6786,       678,
   20.7031,       608,
   20.7277,       697,
   20.7522,       658,
   20.7767,       709,
   20.8013,       662,
   20.8258,       682,
   20.8503,       605,
   20.8749,       647,
   20.8994,       633,
   20.9239,       665,
   20.9485,       673,
    20.973,       627,
   20.9976,       648,
   21.0221,       667,
   21.0466,       632,
   21.0712,       707,
   21.0957,       629,
   21.1202,       612,
   21.1448,       630,
   21.1693,       675,
   21.1938,       625,
   21.2184,       682,
   21.2429,       688,
   21.2674,       652,
    21.292,       699,
   21.3165,       766,
   21.3411,       735,
   21.3656,       750,
   21.3901,       741,
   21.4147,       762,
   21.4392,       755,
   21.4637,       731,
   21.4883,       746,
   21.5128,       762,
   21.5373,       794,
   21.5619,       761,
   21.5864,       723,
    21.611,       765,
   21.6355,       710,
     21.66,       723,
   21.6846,       723,
   21.7091,       648,
   21.7336,       737,
   21.7582,       691,
   21.7827,       692,
   21.8072,       759,
   21.8318,       723,
   21.8563,       710,
   21.8809,       755,
   21.9054,       719,
   21.9299,       756,
   21.9545,       759,
    21.979,       805,
   22.0035,       760,
   22.0281,       729,
   22.0526,       832,
   22.0771,       818,
   22.1017,       838,
   22.1262,       914,
   22.1507,       832,
   22.1753,       854,
   22.1998,       841,
   22.2244,       819,
   22.2489,       862,
   22.2734,       810,
    22.298,       823,
   22.3225,       836,
    22.347,       812,
   22.3716,       785,
   22.3961,       812,
   22.4206,       784,
   22.4452,       827,
   22.4697,       817,
   22.4943,       850,
   22.5188,      1015,
   22.5433,      1049,
   22.5679,      1095,
   22.5924,      1113,
   22.6169,      1115,
   22.6415,      1099,
    22.666,      1081,
   22.6905,      1051,
   22.7151,      1016,
   22.7396,       946,
   22.7642,       936,
   22.7887,       828,
   22.8132,       775,
   22.8378,       766,
   22.8623,       731,
   22.8868,       740,
   22.9114,       698,
   22.9359,       651,
   22.9604,       644,
    22.985,       695,
   23.0095,       697,
    23.034,       698,
   23.0586,       634,
   23.0831,       660,
   23.1077,       640,
   23.1322,       622,
   23.1567,       635,
   23.1813,       636,
   23.2058,       616,
   23.2303,       690,
   23.2549,       586,
   23.2794,       606,
   23.3039,       601,
   23.3285,       569,
    23.353,       535,
   23.3776,       617,
   23.4021,       598,
   23.4266,       587,
   23.4512,       629,
   23.4757,       611,
   23.5002,       626,
   23.5248,       598,
   23.5493,       626,
   23.5738,       624,
   23.5984,       606,
   23.6229,       639,
   23.6475,       635,
    23.672,       633,
   23.6965,       614,
   23.7211,       609,
   23.7456,       584,
   23.7701,       662,
   23.7947,       601,
   23.8192,       630,
   23.8437,       586,
   23.8683,       625,
   23.8928,       612,
   23.9173,       648,
   23.9419,       639,
   23.9664,       620,
    23.991,       579,
   24.0155,       608,
     24.04,       602,
   24.0646,       643,
   24.0891,       591,
   24.1136,       645,
   24.1382,       556,
   24.1627,       636,
   24.1872,       581,
   24.2118,       637,
   24.2363,       607,
   24.2609,       579,
   24.2854,       638,
   24.3099,       608,
   24.3345,       603,
    24.359,       611,
   24.3835,       635,
   24.4081,       643,
   24.4326,       620,
   24.4571,       615,
   24.4817,       631,
   24.5062,       658,
   24.5308,       630,
   24.5553,       636,
   24.5798,       629,
   24.6044,       672,
   24.6289,       631,
   24.6534,       598,
    24.678,       671,
   24.7025,       647,
    24.727,       640,
   24.7516,       656,
   24.7761,       684,
   24.8006,       646,
   24.8252,       663,
   24.8497,       711,
   24.8743,       711,
   24.8988,       696,
   24.9233,       755,
   24.9479,       748,
   24.9724,       769,
   24.9969,       824,
   25.0215,       791,
    25.046,       822,
   25.0705,       867,
   25.0951,       804,
   25.1196,       786,
   25.1442,       787,
   25.1687,       772,
   25.1932,       721,
   25.2178,       750,
   25.2423,       766,
   25.2668,       723,
   25.2914,       724,
   25.3159,       663,
   25.3404,       711,
    25.365,       676,
   25.3895,       709,
   25.4141,       614,
   25.4386,       670,
   25.4631,       681,
   25.4877,       707,
   25.5122,       674,
   25.5367,       672,
   25.5613,       655,
   25.5858,       680,
   25.6103,       687,
   25.6349,       676,
   25.6594,       676,
   25.6839,       659,
   25.7085,       690,
    25.733,       673,
   25.7576,       648,
   25.7821,       642,
   25.8066,       690,
   25.8312,       681,
   25.8557,       675,
   25.8802,       668,
   25.9048,       592,
   25.9293,       674,
   25.9538,       661,
   25.9784,       682,
   26.0029,       661,
   26.0275,       649,
    26.052,       614,
   26.0765,       579,
   26.1011,       626,
   26.1256,       637,
   26.1501,       639,
   26.1747,       654,
   26.1992,       638,
   26.2237,       636,
   26.2483,       614,
   26.2728,       653,
   26.2974,       669,
   26.3219,       657,
   26.3464,       657,
    26.371,       631,
   26.3955,       567,
     26.42,       598,
   26.4446,       660,
   26.4691,       611,
   26.4936,       616,
   26.5182,       654,
   26.5427,       661,
   26.5673,       652,
   26.5918,       688,
   26.6163,       626,
   26.6409,       663,
   26.6654,       687,
   26.6899,       635,
   26.7145,       644,
    26.739,       707,
   26.7635,       672,
   26.7881,       675,
   26.8126,       670,
   26.8371,       746,
   26.8617,       704,
   26.8862,       695,
   26.9108,       689,
   26.9353,       731,
   26.9598,       738,
   26.9844,       675,
   27.0089,       742,
   27.0334,       711,
    27.058,       701,
   27.0825,       739,
    27.107,       663,
   27.1316,       684,
   27.1561,       744,
   27.1807,       705,
   27.2052,       729,
   27.2297,       712,
   27.2543,       685,
   27.2788,       692,
   27.3033,       665,
   27.3279,       711,
   27.3524,       679,
   27.3769,       652,
   27.4015,       660,
    27.426,       662,
   27.4506,       689,
   27.4751,       642,
   27.4996,       675,
   27.5242,       631,
   27.5487,       686,
   27.5732,       618,
   27.5978,       621,
   27.6223,       627,
   27.6468,       615,
   27.6714,       632,
   27.6959,       643,
   27.7204,       619,
    27.745,       645,
   27.7695,       626,
   27.7941,       696,
   27.8186,       680,
   27.8431,       664,
   27.8677,       685,
   27.8922,       698,
   27.9167,       624,
   27.9413,       707,
   27.9658,       661,
   27.9903,       709,
   28.0149,       710,
   28.0394,       637,
    28.064,       685,
   28.0885,       671,
    28.113,       601,
   28.1376,       637,
   28.1621,       625,
   28.1866,       638,
   28.2112,       657,
   28.2357,       681,
   28.2602,       674,
   28.2848,       661,
   28.3093,       632,
   28.3339,       618,
   28.3584,       662,
   28.3829,       617,
   28.4075,       650,
    28.432,       655,
   28.4565,       670,
   28.4811,       668,
   28.5056,       703,
   28.5301,       731,
   28.5547,       646,
   28.5792,       617,
   28.6037,       667,
   28.6283,       671,
   28.6528,       694,
   28.6774,       631,
   28.7019,       735,
   28.7264,       657,
    28.751,       602,
   28.7755,       661,
      28.8,       651,
   28.8246,       722,
   28.8491,       683,
   28.8736,       654,
   28.8982,       696,
   28.9227,       688,
   28.9473,       631,
   28.9718,       633,
   28.9963,       676,
   29.0209,       682,
   29.0454,       633,
   29.0699,       681,
   29.0945,       636,
    29.119,       649,
   29.1435,       627,
   29.1681,       609,
   29.1926,       644,
   29.2172,       629,
   29.2417,       611,
   29.2662,       682,
   29.2908,       618,
   29.3153,       656,
   29.3398,       622,
   29.3644,       628,
   29.3889,       645,
   29.4134,       674,
    29.438,       661,
   29.4625,       633,
    29.487,       658,
   29.5116,       634,
   29.5361,       661,
   29.5607,       621,
   29.5852,       618,
   29.6097,       647,
   29.6343,       612,
   29.6588,       608,
   29.6833,       634,
   29.7079,       628,
   29.7324,       647,
   29.7569,       589,
   29.7815,       590,
    29.806,       602,
   29.8306,       669,
   29.8551,       631,
   29.8796,       565,
   29.9042,       601,
   29.9287,       616,
   29.9532,       628,
   29.9778,       651,
   30.0023,       646,
   30.0268,       625,
   30.0514,       631,
   30.0759,       644,
   30.1005,       622,
    30.125,       622,
   30.1495,       624,
   30.1741,       603,
   30.1986,       608,
   30.2231,       623,
   30.2477,       602,
   30.2722,       697,
   30.2967,       650,
   30.3213,       625,
   30.3458,       630,
   30.3703,       612,
   30.3949,       622,
   30.4194,       637,
    30.444,       656,
   30.4685,       634,
    30.493,       604,
   30.5176,       669,
   30.5421,       619,
   30.5666,       628,
   30.5912,       650,
   30.6157,       616,
   30.6402,       637,
   30.6648,       642,
   30.6893,       579,
   30.7139,       590,
   30.7384,       620,
   30.7629,       575,
   30.7875,       618,
    30.812,       583,
   30.8365,       611,
   30.8611,       633,
   30.8856,       623,
   30.9101,       568,
   30.9347,       590,
   30.9592,       670,
   30.9838,       598,
   31.0083,       607,
   31.0328,       617,
   31.0574,       620,
   31.0819,       623,
   31.1064,       614,
    31.131,       571,
   31.1555,       575,
     31.18,       547,
   31.2046,       591,
   31.2291,       587,
   31.2536,       556,
   31.2782,       616,
   31.3027,       606,
   31.3273,       563,
   31.3518,       595,
   31.3763,       643,
   31.4009,       618,
   31.4254,       605,
   31.4499,       576,
   31.4745,       609,
    31.499,       647,
   31.5235,       646,
   31.5481,       617,
   31.5726,       612,
   31.5972,       653,
   31.6217,       653,
   31.6462,       608,
   31.6708,       602,
   31.6953,       660,
   31.7198,       637,
   31.7444,       637,
   31.7689,       671,
   31.7934,       594,
    31.818,       645,
   31.8425,       611,
   31.8671,       605,
   31.8916,       602,
   31.9161,       601,
   31.9407,       608,
   31.9652,       607,
   31.9897,       619,
   32.0143,       656,
   32.0388,       649,
   32.0633,       605,
   32.0879,       663,
   32.1124,       657,
   32.1369,       635,
   32.1615,       613,
    32.186,       714,
   32.2106,       618,
   32.2351,       673,
   32.2596,       625,
   32.2842,       588,
   32.3087,       627,
   32.3332,       622,
   32.3578,       586,
   32.3823,       606,
   32.4068,       582,
   32.4314,       599,
   32.4559,       582,
   32.4805,       560,
    32.505,       565,
   32.5295,       568,
   32.5541,       561,
   32.5786,       536,
   32.6031,       588,
   32.6277,       568,
   32.6522,       583,
   32.6767,       541,
   32.7013,       576,
   32.7258,       527,
   32.7504,       580,
   32.7749,       539,
   32.7994,       552,
    32.824,       570,
   32.8485,       500,
    32.873,       556,
   32.8976,       549,
   32.9221,       537,
   32.9466,       526,
   32.9712,       561,
   32.9957,       562,
   33.0203,       545,
   33.0448,       575,
   33.0693,       565,
   33.0939,       505,
   33.1184,       597,
   33.1429,       544,
   33.1675,       613,
    33.192,       581,
   33.2165,       577,
   33.2411,       582,
   33.2656,       566,
   33.2901,       561,
   33.3147,       589,
   33.3392,       576,
   33.3638,       578,
   33.3883,       601,
   33.4128,       548,
   33.4374,       551,
   33.4619,       490,
   33.4864,       549,
    33.511,       565,
   33.5355,       556,
     33.56,       571,
   33.5846,       574,
   33.6091,       552,
   33.6337,       552,
   33.6582,       528,
   33.6827,       539,
   33.7073,       530,
   33.7318,       544,
   33.7563,       509,
   33.7809,       547,
   33.8054,       512,
   33.8299,       538,
   33.8545,       538,
    33.879,       507,
   33.9036,       532,
   33.9281,       541,
   33.9526,       518,
   33.9772,       485,
   34.0017,       531,
   34.0262,       512,
   34.0508,       495,
   34.0753,       505,
   34.0998,       532,
   34.1244,       501,
   34.1489,       522,
   34.1734,       506,
    34.198,       503,
   34.2225,       527,
   34.2471,       537,
   34.2716,       532,
   34.2961,       494,
   34.3207,       488,
   34.3452,       507,
   34.3697,       475,
   34.3943,       542,
   34.4188,       536,
   34.4433,       526,
   34.4679,       517,
   34.4924,       511,
    34.517,       507,
   34.5415,       505,
    34.566,       529,
   34.5906,       477,
   34.6151,       498,
   34.6396,       513,
   34.6642,       477,
   34.6887,       523,
   34.7132,       529,
   34.7378,       509,
   34.7623,       529,
   34.7869,       499,
   34.8114,       519,
   34.8359,       524,
   34.8605,       553,
    34.885,       516,
   34.9095,       519,
   34.9341,       518,
   34.9586,       548,
   34.9831,       541,
   35.0077,       548,
   35.0322,       540,
   35.0567,       509,
   35.0813,       525,
   35.1058,       535,
   35.1304,       494,
   35.1549,       477,
   35.1794,       584,
    35.204,       537,
   35.2285,       537,
    35.253,       497,
   35.2776,       527,
   35.3021,       486,
   35.3266,       512,
   35.3512,       498,
   35.3757,       516,
   35.4003,       492,
   35.4248,       506,
   35.4493,       500,
   35.4739,       473,
   35.4984,       502,
   35.5229,       528,
   35.5475,       493,
    35.572,       495,
   35.5965,       512,
   35.6211,       479,
   35.6456,       532,
   35.6702,       515,
   35.6947,       497,
   35.7192,       514,
   35.7438,       524,
   35.7683,       504,
   35.7928,       533,
   35.8174,       534,
   35.8419,       522,
   35.8664,       484,
    35.891,       494,
   35.9155,       472,
     35.94,       498,
   35.9646,       565,
   35.9891,       513,
   36.0137,       481,
   36.0382,       506,
   36.0627,       511,
   36.0873,       482,
   36.1118,       529,
   36.1363,       549,
   36.1609,       513,
   36.1854,       511,
   36.2099,       556,
   36.2345,       495,
    36.259,       555,
   36.2836,       540,
   36.3081,       473,
   36.3326,       507,
   36.3572,       493,
   36.3817,       536,
   36.4062,       515,
   36.4308,       492,
   36.4553,       488,
   36.4798,       490,
   36.5044,       477,
   36.5289,       497,
   36.5535,       518,
    36.578,       444,
   36.6025,       474,
   36.6271,       501,
   36.6516,       483,
   36.6761,       495,
   36.7007,       473,
   36.7252,       447,
   36.7497,       462,
   36.7743,       458,
   36.7988,       429,
   36.8233,       500,
   36.8479,       468,
   36.8724,       456,
    36.897,       445,
   36.9215,       445,
    36.946,       398,
   36.9706,       434,
   36.9951,       449,
   37.0196,       460,
   37.0442,       411,
   37.0687,       439,
   37.0932,       421,
   37.1178,       414,
   37.1423,       390,
   37.1669,       458,
   37.1914,       457,
   37.2159,       425,
   37.2405,       435,
    37.265,       440,
   37.2895,       437,
   37.3141,       475,
   37.3386,       423,
   37.3631,       435,
   37.3877,       480,
   37.4122,       403,
   37.4368,       433,
   37.4613,       466,
   37.4858,       411,
   37.5104,       435,
   37.5349,       466,
   37.5594,       448,
    37.584,       406,
   37.6085,       429,
    37.633,       473,
   37.6576,       429,
   37.6821,       449,
   37.7066,       449,
   37.7312,       402,
   37.7557,       416,
   37.7803,       439,
   37.8048,       408,
   37.8293,       423,
   37.8539,       386,
   37.8784,       395,
   37.9029,       396,
   37.9275,       411,
    37.952,       414,
   37.9765,       421,
   38.0011,       399,
   38.0256,       405,
   38.0502,       372,
   38.0747,       429,
   38.0992,       410,
   38.1238,       403,
   38.1483,       438,
   38.1728,       369,
   38.1974,       418,
   38.2219,       419,
   38.2464,       388,
    38.271,       401,
   38.2955,       393,
   38.3201,       397,
   38.3446,       376,
   38.3691,       363,
   38.3937,       398,
   38.4182,       413,
   38.4427,       383,
   38.4673,       400,
   38.4918,       391,
   38.5163,       443,
   38.5409,       407,
   38.5654,       413,
   38.5899,       420,
   38.6145,       389,
    38.639,       434,
   38.6636,       399,
   38.6881,       382,
   38.7126,       373,
   38.7372,       367,
   38.7617,       384,
   38.7862,       420,
   38.8108,       376,
   38.8353,       400,
   38.8598,       371,
   38.8844,       414,
   38.9089,       377,
   38.9335,       414,
    38.958,       394,
   38.9825,       395,
   39.0071,       421,
   39.0316,       392,
   39.0561,       370,
   39.0807,       388,
   39.1052,       408,
   39.1297,       411,
   39.1543,       403,
   39.1788,       379,
   39.2034,       427,
   39.2279,       387,
   39.2524,       403,
    39.277,       400,
   39.3015,       414,
    39.326,       415,
   39.3506,       401,
   39.3751,       405,
   39.3996,       430,
   39.4242,       393,
   39.4487,       391,
   39.4732,       434,
   39.4978,       428,
   39.5223,       409,
   39.5469,       450,
   39.5714,       469,
   39.5959,       395,
   39.6205,       438,
    39.645,       476,
   39.6695,       414,
   39.6941,       460,
   39.7186,       440,
   39.7431,       427,
   39.7677,       385,
   39.7922,       418,
   39.8168,       440,
   39.8413,       433,
   39.8658,       392,
   39.8904,       436,
   39.9149,       416,
   39.9394,       429,
    39.964,       420,
   39.9885,       409,
