;RAW4.00
[RawHeader]
Date=01/17/2022
EstimatedTotalTime=647.389
FurtherDQLReading=0
HardwareIndicator=65519
MeasuredTotalTime=647.389
MeasurementFlag=1
NumberOfMeasuredRanges=1
NumberOfRanges=1
Time=10:18:05

[VarInfo]
Type=USER
Flags=0
Value=Lab Manager

[VarInfo]
Type=SAMPLEID
Flags=0
Value=

[VarInfo]
Type=COMMENT
Flags=0
Value=

[VarInfo]
Type=UTF
Flags=0
Value=

[VarInfo]
Type=CREATOR
Flags=0
Value=BrmlToV4Converter

[VarInfo]
Type=CREATOR_VERSION
Flags=0
Value=7.3.1.0

[HardwareConfiguration]
AbsorptionFactor=9999
ActivateAbsorber=0
Alpha1=0.7093
Alpha2=0.71359
AlphaAverage=0.71073
AlphaRatio=0.5
Analyzer=0
Anode=Mo
AntiScatteringSlit=18
BeamOpticsFlags=0
Beta=0.63229
BetaRelativeIntensity=0
DeactivateAbsorber=0
DetectorSlit=9999
DivergenceSlit=0.2
GoniometerControl=0
GoniometerDiameter=560
GoniometerModel=512
GoniometerStage=7
Monochromator=0
NearSampleSlit=9999
PrimarySollerSlit=2.5
SampleChanger=0
SecondSollerSlit=9999
SynchronousAxis=0
ThinFilmAttachment=9999
WaveUnit=A

[RangeHeader]
ActuallyUsedLambda=0.71073
AdditionalDetectorMask=257
DataRecordLength=4
DelayTime=0
DisplayPlaneNumber=0
EstimatedScanTime=647
ExtraParametersMask=0
GeneratorCurrent=40
GeneratorVoltage=50
Increment=0.0245361
Increment3=0
NumberOfCompletedData=1427
NumberOfCounts=1
NumberOfDetectors=0
NumberOfDrives=2
NumberOfEncoderDrives=0
NumberOfMeasuredData=1427
NumberOfVaryingParameters=0
RangeStartTime=0
RotationSpeed=60
ScanMode=1
ScanType=Locked Coupled
SimulatedMeasConditions=0
SlitChangerIn=0
SmootingWidth=0
Start=5
Steps=1427
SynchronousRotation=0
Time=76.8

[VarInfo]
Type=PSD_DISCRIM
Flags=0
Value=0.488;0.518

[PSD]
ActualTwoTheta=9999
FirstUsedChannel=0
FixedPSD=0
PSDOpening=2.94433
PSDType=5

[Drive]
DriveFlags=1
DriveName=2Theta
DriveNumber=2
DriveOffset=0
OffsetIndex=0
OscillationAmplitude=0
OscillationSpeed=0
StartPosition=5

[Drive]
DriveFlags=1
DriveName=Theta
DriveNumber=1
DriveOffset=0
OffsetIndex=0
OscillationAmplitude=0
OscillationSpeed=0
StartPosition=2.5

[Data]
     Angle,       PSD,
         5,       141,
   5.02454,       270,
   5.04907,       235,
   5.07361,       196,
   5.09814,       294,
   5.12268,       186,
   5.14722,       299,
   5.17175,       261,
   5.19629,       244,
   5.22083,       371,
   5.24536,       154,
    5.2699,       338,
   5.29443,       269,
   5.31897,       218,
   5.34351,       371,
   5.36804,       188,
   5.39258,       325,
   5.41711,       283,
   5.44165,       294,
   5.46619,       346,
   5.49072,       180,
   5.51526,       387,
   5.53979,       295,
   5.56433,       275,
   5.58887,       360,
    5.6134,       227,
   5.63794,       400,
   5.66248,       314,
   5.68701,       243,
   5.71155,       369,
   5.73608,       197,
   5.76062,       338,
   5.78516,       273,
   5.80969,       242,
   5.83423,       329,
   5.85876,       184,
    5.8833,       338,
   5.90784,       254,
   5.93237,       204,
   5.95691,       319,
   5.98144,       148,
   6.00598,       290,
   6.03052,       257,
   6.05505,       258,
   6.07959,       315,
   6.10413,       161,
   6.12866,       298,
    6.1532,       234,
   6.17773,       221,
   6.20227,       315,
   6.22681,       151,
   6.25134,       284,
   6.27588,       207,
   6.30041,       181,
   6.32495,       263,
   6.34949,       148,
   6.37402,       266,
   6.39856,       211,
    6.4231,       190,
   6.44763,       251,
   6.47217,       152,
    6.4967,       236,
   6.52124,       202,
   6.54578,       184,
   6.57031,       224,
   6.59485,       125,
   6.61938,       252,
   6.64392,       188,
   6.66846,       160,
   6.69299,       223,
   6.71753,       138,
   6.74206,       241,
    6.7666,       186,
   6.79114,       172,
   6.81567,       266,
   6.84021,       151,
   6.86475,       244,
   6.88928,       204,
   6.91382,       155,
   6.93835,       228,
   6.96289,       141,
   6.98743,       246,
   7.01196,       213,
    7.0365,       150,
   7.06103,       241,
   7.08557,       142,
   7.11011,       245,
   7.13464,       198,
   7.15918,       171,
   7.18371,       218,
   7.20825,       129,
   7.23279,       214,
   7.25732,       184,
   7.28186,       166,
    7.3064,       218,
   7.33093,       136,
   7.35547,       219,
      7.38,       218,
   7.40454,       172,
   7.42908,       224,
   7.45361,       125,
   7.47815,       230,
   7.50268,       190,
   7.52722,       150,
   7.55176,       248,
   7.57629,       119,
   7.60083,       219,
   7.62536,       173,
    7.6499,       160,
   7.67444,       244,
   7.69897,       140,
   7.72351,       195,
   7.74805,       198,
   7.77258,       186,
   7.79712,       242,
   7.82165,       135,
   7.84619,       235,
   7.87073,       172,
   7.89526,       192,
    7.9198,       268,
   7.94433,       165,
   7.96887,       235,
   7.99341,       199,
   8.01794,       178,
   8.04248,       265,
   8.06702,       166,
   8.09155,       217,
   8.11609,       229,
   8.14062,       169,
   8.16516,       230,
    8.1897,       149,
   8.21423,       244,
   8.23877,       207,
    8.2633,       184,
   8.28784,       261,
   8.31238,       149,
   8.33691,       249,
   8.36145,       190,
   8.38598,       173,
   8.41052,       266,
   8.43506,       154,
   8.45959,       254,
   8.48413,       228,
   8.50867,       195,
    8.5332,       265,
   8.55774,       175,
   8.58227,       250,
   8.60681,       221,
   8.63135,       221,
   8.65588,       261,
   8.68042,       162,
   8.70495,       300,
   8.72949,       267,
   8.75403,       219,
   8.77856,       298,
    8.8031,       216,
   8.82763,       296,
   8.85217,       248,
   8.87671,       231,
   8.90124,       304,
   8.92578,       199,
   8.95032,       306,
   8.97485,       275,
   8.99939,       215,
   9.02392,       305,
   9.04846,       211,
     9.073,       333,
   9.09753,       286,
   9.12207,       264,
    9.1466,       359,
   9.17114,       249,
   9.19568,       369,
   9.22021,       324,
   9.24475,       318,
   9.26929,       399,
   9.29382,       288,
   9.31836,       425,
   9.34289,       373,
   9.36743,       362,
   9.39197,       452,
    9.4165,       362,
   9.44104,       439,
   9.46557,       453,
   9.49011,       439,
   9.51465,       492,
   9.53918,       419,
   9.56372,       516,
   9.58825,       544,
   9.61279,       537,
   9.63733,       614,
   9.66186,       573,
    9.6864,       670,
   9.71094,       670,
   9.73547,       674,
   9.76001,       752,
   9.78454,       667,
   9.80908,       738,
   9.83362,       659,
   9.85815,       655,
   9.88269,       698,
   9.90722,       690,
   9.93176,       704,
    9.9563,       744,
   9.98083,       770,
   10.0054,       777,
   10.0299,       719,
   10.0544,       813,
    10.079,       795,
   10.1035,       790,
    10.128,       888,
   10.1526,       863,
   10.1771,       900,
   10.2017,       829,
   10.2262,       898,
   10.2507,       929,
   10.2753,       887,
   10.2998,       916,
   10.3243,       932,
   10.3489,       893,
   10.3734,       950,
   10.3979,       875,
   10.4225,      1014,
    10.447,       988,
   10.4716,       954,
   10.4961,      1063,
   10.5206,      1018,
   10.5452,      1136,
   10.5697,      1085,
   10.5942,      1043,
   10.6188,      1118,
   10.6433,      1077,
   10.6678,      1138,
   10.6924,      1144,
   10.7169,      1126,
   10.7415,      1117,
    10.766,      1141,
   10.7905,      1111,
   10.8151,      1177,
   10.8396,      1146,
   10.8641,      1191,
   10.8887,      1130,
   10.9132,      1145,
   10.9377,      1198,
   10.9623,      1254,
   10.9868,      1262,
   11.0113,      1244,
   11.0359,      1157,
   11.0604,      1165,
    11.085,      1249,
   11.1095,      1342,
    11.134,      1222,
   11.1586,      1241,
   11.1831,      1229,
   11.2076,      1273,
   11.2322,      1284,
   11.2567,      1304,
   11.2812,      1308,
   11.3058,      1353,
   11.3303,      1360,
   11.3549,      1382,
   11.3794,      1474,
   11.4039,      1627,
   11.4285,      1707,
    11.453,      1898,
   11.4775,      1920,
   11.5021,      1930,
   11.5266,      1912,
   11.5511,      1869,
   11.5757,      1733,
   11.6002,      1631,
   11.6248,      1549,
   11.6493,      1427,
   11.6738,      1445,
   11.6984,      1350,
   11.7229,      1372,
   11.7474,      1336,
    11.772,      1329,
   11.7965,      1326,
    11.821,      1296,
   11.8456,      1239,
   11.8701,      1304,
   11.8946,      1287,
   11.9192,      1245,
   11.9437,      1281,
   11.9683,      1282,
   11.9928,      1288,
   12.0173,      1382,
   12.0419,      1285,
   12.0664,      1269,
   12.0909,      1362,
   12.1155,      1271,
     12.14,      1272,
   12.1645,      1291,
   12.1891,      1261,
   12.2136,      1268,
   12.2382,      1379,
   12.2627,      1371,
   12.2872,      1462,
   12.3118,      1416,
   12.3363,      1564,
   12.3608,      1629,
   12.3854,      1779,
   12.4099,      2043,
   12.4344,      2140,
    12.459,      2263,
   12.4835,      2336,
   12.5081,      2277,
   12.5326,      2264,
   12.5571,      2051,
   12.5817,      1793,
   12.6062,      1680,
   12.6307,      1613,
   12.6553,      1468,
   12.6798,      1392,
   12.7043,      1423,
   12.7289,      1284,
   12.7534,      1276,
    12.778,      1237,
   12.8025,      1195,
    12.827,      1250,
   12.8516,      1274,
   12.8761,      1221,
   12.9006,      1191,
   12.9252,      1212,
   12.9497,      1165,
   12.9742,      1125,
   12.9988,      1167,
   13.0233,      1212,
   13.0478,      1213,
   13.0724,      1174,
   13.0969,      1169,
   13.1215,      1206,
    13.146,      1192,
   13.1705,      1144,
   13.1951,      1171,
   13.2196,      1132,
   13.2441,      1219,
   13.2687,      1142,
   13.2932,      1163,
   13.3177,      1209,
   13.3423,      1144,
   13.3668,      1142,
   13.3914,      1224,
   13.4159,      1327,
   13.4404,      1375,
    13.465,      1471,
   13.4895,      1696,
    13.514,      1818,
   13.5386,      1826,
   13.5631,      1784,
   13.5876,      1673,
   13.6122,      1630,
   13.6367,      1494,
   13.6613,      1269,
   13.6858,      1245,
   13.7103,      1109,
   13.7349,      1084,
   13.7594,      1058,
   13.7839,      1127,
   13.8085,      1051,
    13.833,      1080,
   13.8575,      1054,
   13.8821,      1107,
   13.9066,      1089,
   13.9311,      1029,
   13.9557,      1125,
   13.9802,      1067,
   14.0048,      1100,
   14.0293,      1045,
   14.0538,      1067,
   14.0784,      1035,
   14.1029,      1005,
   14.1274,      1030,
    14.152,       980,
   14.1765,      1017,
    14.201,      1004,
   14.2256,       984,
   14.2501,      1022,
   14.2747,      1020,
   14.2992,      1043,
   14.3237,      1020,
   14.3483,      1021,
   14.3728,       943,
   14.3973,       996,
   14.4219,      1049,
   14.4464,      1026,
   14.4709,      1027,
   14.4955,       984,
     14.52,      1119,
   14.5446,      1064,
   14.5691,      1027,
   14.5936,      1034,
   14.6182,      1064,
   14.6427,      1040,
   14.6672,       982,
   14.6918,      1027,
   14.7163,       951,
   14.7408,       971,
   14.7654,      1027,
   14.7899,      1030,
   14.8144,      1086,
    14.839,      1048,
   14.8635,      1125,
   14.8881,      1156,
   14.9126,      1257,
   14.9371,      1292,
   14.9617,      1499,
   14.9862,      1669,
   15.0107,      1811,
   15.0353,      1826,
   15.0598,      1772,
   15.0843,      1867,
   15.1089,      1743,
   15.1334,      1619,
    15.158,      1453,
   15.1825,      1311,
    15.207,      1279,
   15.2316,      1117,
   15.2561,      1066,
   15.2806,      1032,
   15.3052,      1031,
   15.3297,       958,
   15.3542,       988,
   15.3788,       930,
   15.4033,       897,
   15.4279,       904,
   15.4524,       890,
   15.4769,       903,
   15.5015,       902,
    15.526,       904,
   15.5505,       848,
   15.5751,       884,
   15.5996,       869,
   15.6241,       831,
   15.6487,       896,
   15.6732,       784,
   15.6977,       859,
   15.7223,       792,
   15.7468,       797,
   15.7714,       863,
   15.7959,       850,
   15.8204,       803,
    15.845,       838,
   15.8695,       813,
    15.894,       863,
   15.9186,       766,
   15.9431,       775,
   15.9676,       787,
   15.9922,       754,
   16.0167,       796,
   16.0413,       777,
   16.0658,       783,
   16.0903,       761,
   16.1149,       739,
   16.1394,       809,
   16.1639,       758,
   16.1885,       791,
    16.213,       761,
   16.2375,       792,
   16.2621,       764,
   16.2866,       737,
   16.3112,       765,
   16.3357,       746,
   16.3602,       754,
   16.3848,       759,
   16.4093,       800,
   16.4338,       843,
   16.4584,       883,
   16.4829,       789,
   16.5074,       795,
    16.532,       842,
   16.5565,       818,
    16.581,       783,
   16.6056,       760,
   16.6301,       771,
   16.6547,       698,
   16.6792,       724,
   16.7037,       736,
   16.7283,       701,
   16.7528,       735,
   16.7773,       725,
   16.8019,       690,
   16.8264,       695,
   16.8509,       695,
   16.8755,       699,
      16.9,       679,
   16.9246,       696,
   16.9491,       695,
   16.9736,       723,
   16.9982,       685,
   17.0227,       683,
   17.0472,       680,
   17.0718,       642,
   17.0963,       621,
   17.1208,       744,
   17.1454,       660,
   17.1699,       677,
   17.1945,       672,
    17.219,       685,
   17.2435,       642,
   17.2681,       687,
   17.2926,       694,
   17.3171,       679,
   17.3417,       702,
   17.3662,       687,
   17.3907,       682,
   17.4153,       665,
   17.4398,       669,
   17.4643,       605,
   17.4889,       710,
   17.5134,       651,
    17.538,       697,
   17.5625,       698,
    17.587,       698,
   17.6116,       738,
   17.6361,       684,
   17.6606,       775,
   17.6852,       757,
   17.7097,       779,
   17.7342,       740,
   17.7588,       736,
   17.7833,       759,
   17.8079,       795,
   17.8324,       738,
   17.8569,       787,
   17.8815,       751,
    17.906,       796,
   17.9305,       879,
   17.9551,       854,
   17.9796,       855,
   18.0041,       790,
   18.0287,       801,
   18.0532,       776,
   18.0778,       762,
   18.1023,       798,
   18.1268,       730,
   18.1514,       716,
   18.1759,       705,
   18.2004,       689,
    18.225,       689,
   18.2495,       698,
    18.274,       679,
   18.2986,       732,
   18.3231,       702,
   18.3476,       698,
   18.3722,       664,
   18.3967,       683,
   18.4213,       696,
   18.4458,       700,
   18.4703,       684,
   18.4949,       694,
   18.5194,       690,
   18.5439,       691,
   18.5685,       761,
    18.593,       714,
   18.6175,       720,
   18.6421,       665,
   18.6666,       717,
   18.6912,       672,
   18.7157,       704,
   18.7402,       717,
   18.7648,       686,
   18.7893,       725,
   18.8138,       679,
   18.8384,       671,
   18.8629,       717,
   18.8874,       705,
    18.912,       638,
   18.9365,       718,
   18.9611,       705,
   18.9856,       743,
   19.0101,       718,
   19.0347,       679,
   19.0592,       719,
   19.0837,       734,
   19.1083,       657,
   19.1328,       724,
   19.1573,       677,
   19.1819,       706,
   19.2064,       689,
    19.231,       687,
   19.2555,       702,
     19.28,       679,
   19.3046,       700,
   19.3291,       758,
   19.3536,       740,
   19.3782,       769,
   19.4027,       717,
   19.4272,       784,
   19.4518,       812,
   19.4763,       807,
   19.5008,       839,
   19.5254,       768,
   19.5499,       750,
   19.5745,       751,
    19.599,       904,
   19.6235,       788,
   19.6481,       854,
   19.6726,       816,
   19.6971,       811,
   19.7217,       821,
   19.7462,       841,
   19.7707,       873,
   19.7953,       918,
   19.8198,      1020,
   19.8444,      1065,
   19.8689,      1141,
   19.8934,      1198,
    19.918,      1146,
   19.9425,      1210,
    19.967,      1126,
   19.9916,      1087,
   20.0161,      1080,
   20.0406,      1007,
   20.0652,       926,
   20.0897,       867,
   20.1143,       837,
   20.1388,       803,
   20.1633,       786,
   20.1879,       697,
   20.2124,       755,
   20.2369,       721,
   20.2615,       736,
    20.286,       690,
   20.3105,       677,
   20.3351,       697,
   20.3596,       731,
   20.3841,       665,
   20.4087,       679,
   20.4332,       693,
   20.4578,       678,
   20.4823,       650,
   20.5068,       672,
   20.5314,       655,
   20.5559,       689,
   20.5804,       710,
    20.605,       679,
   20.6295,       656,
    20.654,       648,
   20.6786,       655,
   20.7031,       661,
   20.7277,       660,
   20.7522,       652,
   20.7767,       663,
   20.8013,       658,
   20.8258,       639,
   20.8503,       687,
   20.8749,       616,
   20.8994,       640,
   20.9239,       629,
   20.9485,       644,
    20.973,       632,
   20.9976,       607,
   21.0221,       640,
   21.0466,       618,
   21.0712,       668,
   21.0957,       614,
   21.1202,       648,
   21.1448,       615,
   21.1693,       647,
   21.1938,       646,
   21.2184,       729,
   21.2429,       729,
   21.2674,       699,
    21.292,       716,
   21.3165,       767,
   21.3411,       738,
   21.3656,       714,
   21.3901,       752,
   21.4147,       735,
   21.4392,       808,
   21.4637,       858,
   21.4883,       778,
   21.5128,       752,
   21.5373,       750,
   21.5619,       739,
   21.5864,       708,
    21.611,       702,
   21.6355,       729,
     21.66,       713,
   21.6846,       685,
   21.7091,       702,
   21.7336,       758,
   21.7582,       699,
   21.7827,       727,
   21.8072,       703,
   21.8318,       671,
   21.8563,       687,
   21.8809,       789,
   21.9054,       805,
   21.9299,       755,
   21.9545,       809,
    21.979,       739,
   22.0035,       795,
   22.0281,       775,
   22.0526,       796,
   22.0771,       800,
   22.1017,       833,
   22.1262,       852,
   22.1507,       828,
   22.1753,       786,
   22.1998,       780,
   22.2244,       850,
   22.2489,       792,
   22.2734,       773,
    22.298,       769,
   22.3225,       789,
    22.347,       779,
   22.3716,       785,
   22.3961,       750,
   22.4206,       777,
   22.4452,       820,
   22.4697,       817,
   22.4943,       881,
   22.5188,       924,
   22.5433,      1024,
   22.5679,      1047,
   22.5924,      1061,
   22.6169,      1070,
   22.6415,      1035,
    22.666,      1031,
   22.6905,       901,
   22.7151,       923,
   22.7396,       877,
   22.7642,       861,
   22.7887,       789,
   22.8132,       770,
   22.8378,       708,
   22.8623,       665,
   22.8868,       682,
   22.9114,       665,
   22.9359,       691,
   22.9604,       654,
    22.985,       640,
   23.0095,       665,
    23.034,       621,
   23.0586,       625,
   23.0831,       649,
   23.1077,       674,
   23.1322,       626,
   23.1567,       672,
   23.1813,       596,
   23.2058,       621,
   23.2303,       646,
   23.2549,       604,
   23.2794,       602,
   23.3039,       615,
   23.3285,       652,
    23.353,       659,
   23.3776,       646,
   23.4021,       621,
   23.4266,       648,
   23.4512,       627,
   23.4757,       640,
   23.5002,       646,
   23.5248,       642,
   23.5493,       612,
   23.5738,       666,
   23.5984,       613,
   23.6229,       607,
   23.6475,       637,
    23.672,       615,
   23.6965,       638,
   23.7211,       592,
   23.7456,       573,
   23.7701,       652,
   23.7947,       654,
   23.8192,       631,
   23.8437,       608,
   23.8683,       608,
   23.8928,       594,
   23.9173,       637,
   23.9419,       629,
   23.9664,       609,
    23.991,       653,
   24.0155,       612,
     24.04,       615,
   24.0646,       638,
   24.0891,       601,
   24.1136,       633,
   24.1382,       630,
   24.1627,       645,
   24.1872,       629,
   24.2118,       607,
   24.2363,       646,
   24.2609,       626,
   24.2854,       630,
   24.3099,       647,
   24.3345,       648,
    24.359,       606,
   24.3835,       692,
   24.4081,       669,
   24.4326,       633,
   24.4571,       617,
   24.4817,       662,
   24.5062,       705,
   24.5308,       643,
   24.5553,       648,
   24.5798,       617,
   24.6044,       651,
   24.6289,       638,
   24.6534,       624,
    24.678,       664,
   24.7025,       656,
    24.727,       675,
   24.7516,       699,
   24.7761,       703,
   24.8006,       675,
   24.8252,       716,
   24.8497,       727,
   24.8743,       738,
   24.8988,       681,
   24.9233,       758,
   24.9479,       779,
   24.9724,       799,
   24.9969,       842,
   25.0215,       850,
    25.046,       743,
   25.0705,       810,
   25.0951,       768,
   25.1196,       807,
   25.1442,       764,
   25.1687,       799,
   25.1932,       733,
   25.2178,       733,
   25.2423,       699,
   25.2668,       735,
   25.2914,       725,
   25.3159,       725,
   25.3404,       687,
    25.365,       684,
   25.3895,       688,
   25.4141,       719,
   25.4386,       745,
   25.4631,       683,
   25.4877,       654,
   25.5122,       717,
   25.5367,       679,
   25.5613,       666,
   25.5858,       659,
   25.6103,       657,
   25.6349,       650,
   25.6594,       723,
   25.6839,       712,
   25.7085,       695,
    25.733,       703,
   25.7576,       675,
   25.7821,       701,
   25.8066,       700,
   25.8312,       709,
   25.8557,       645,
   25.8802,       658,
   25.9048,       668,
   25.9293,       700,
   25.9538,       672,
   25.9784,       675,
   26.0029,       642,
   26.0275,       657,
    26.052,       658,
   26.0765,       612,
   26.1011,       618,
   26.1256,       650,
   26.1501,       689,
   26.1747,       638,
   26.1992,       685,
   26.2237,       645,
   26.2483,       632,
   26.2728,       673,
   26.2974,       670,
   26.3219,       679,
   26.3464,       612,
    26.371,       680,
   26.3955,       661,
     26.42,       651,
   26.4446,       669,
   26.4691,       669,
   26.4936,       712,
   26.5182,       654,
   26.5427,       678,
   26.5673,       662,
   26.5918,       685,
   26.6163,       641,
   26.6409,       653,
   26.6654,       704,
   26.6899,       694,
   26.7145,       686,
    26.739,       687,
   26.7635,       671,
   26.7881,       675,
   26.8126,       713,
   26.8371,       754,
   26.8617,       699,
   26.8862,       658,
   26.9108,       712,
   26.9353,       717,
   26.9598,       695,
   26.9844,       723,
   27.0089,       728,
   27.0334,       746,
    27.058,       799,
   27.0825,       694,
    27.107,       719,
   27.1316,       665,
   27.1561,       679,
   27.1807,       722,
   27.2052,       707,
   27.2297,       704,
   27.2543,       745,
   27.2788,       697,
   27.3033,       716,
   27.3279,       716,
   27.3524,       699,
   27.3769,       672,
   27.4015,       659,
    27.426,       685,
   27.4506,       610,
   27.4751,       667,
   27.4996,       663,
   27.5242,       614,
   27.5487,       659,
   27.5732,       709,
   27.5978,       641,
   27.6223,       651,
   27.6468,       667,
   27.6714,       653,
   27.6959,       660,
   27.7204,       675,
    27.745,       672,
   27.7695,       651,
   27.7941,       663,
   27.8186,       677,
   27.8431,       662,
   27.8677,       704,
   27.8922,       709,
   27.9167,       709,
   27.9413,       681,
   27.9658,       672,
   27.9903,       699,
   28.0149,       677,
   28.0394,       708,
    28.064,       715,
   28.0885,       702,
    28.113,       707,
   28.1376,       672,
   28.1621,       713,
   28.1866,       701,
   28.2112,       684,
   28.2357,       671,
   28.2602,       688,
   28.2848,       665,
   28.3093,       654,
   28.3339,       670,
   28.3584,       654,
   28.3829,       699,
   28.4075,       691,
    28.432,       672,
   28.4565,       651,
   28.4811,       692,
   28.5056,       590,
   28.5301,       682,
   28.5547,       685,
   28.5792,       669,
   28.6037,       757,
   28.6283,       713,
   28.6528,       730,
   28.6774,       708,
   28.7019,       671,
   28.7264,       684,
    28.751,       697,
   28.7755,       689,
      28.8,       750,
   28.8246,       718,
   28.8491,       664,
   28.8736,       701,
   28.8982,       670,
   28.9227,       693,
   28.9473,       688,
   28.9718,       692,
   28.9963,       685,
   29.0209,       691,
   29.0454,       685,
   29.0699,       711,
   29.0945,       613,
    29.119,       625,
   29.1435,       694,
   29.1681,       662,
   29.1926,       650,
   29.2172,       662,
   29.2417,       645,
   29.2662,       633,
   29.2908,       621,
   29.3153,       626,
   29.3398,       643,
   29.3644,       632,
   29.3889,       605,
   29.4134,       636,
    29.438,       676,
   29.4625,       604,
    29.487,       597,
   29.5116,       659,
   29.5361,       598,
   29.5607,       648,
   29.5852,       644,
   29.6097,       666,
   29.6343,       643,
   29.6588,       658,
   29.6833,       678,
   29.7079,       626,
   29.7324,       621,
   29.7569,       654,
   29.7815,       669,
    29.806,       629,
   29.8306,       665,
   29.8551,       648,
   29.8796,       642,
   29.9042,       685,
   29.9287,       684,
   29.9532,       634,
   29.9778,       640,
   30.0023,       621,
   30.0268,       631,
   30.0514,       682,
   30.0759,       610,
   30.1005,       614,
    30.125,       662,
   30.1495,       676,
   30.1741,       679,
   30.1986,       706,
   30.2231,       682,
   30.2477,       710,
   30.2722,       655,
   30.2967,       653,
   30.3213,       686,
   30.3458,       697,
   30.3703,       681,
   30.3949,       654,
   30.4194,       640,
    30.444,       638,
   30.4685,       640,
    30.493,       646,
   30.5176,       603,
   30.5421,       644,
   30.5666,       688,
   30.5912,       628,
   30.6157,       641,
   30.6402,       676,
   30.6648,       650,
   30.6893,       641,
   30.7139,       639,
   30.7384,       623,
   30.7629,       650,
   30.7875,       644,
    30.812,       659,
   30.8365,       593,
   30.8611,       629,
   30.8856,       656,
   30.9101,       621,
   30.9347,       584,
   30.9592,       618,
   30.9838,       631,
   31.0083,       612,
   31.0328,       636,
   31.0574,       623,
   31.0819,       617,
   31.1064,       697,
    31.131,       647,
   31.1555,       609,
     31.18,       583,
   31.2046,       630,
   31.2291,       620,
   31.2536,       627,
   31.2782,       609,
   31.3027,       616,
   31.3273,       654,
   31.3518,       597,
   31.3763,       615,
   31.4009,       585,
   31.4254,       672,
   31.4499,       620,
   31.4745,       661,
    31.499,       629,
   31.5235,       698,
   31.5481,       640,
   31.5726,       671,
   31.5972,       624,
   31.6217,       648,
   31.6462,       669,
   31.6708,       656,
   31.6953,       640,
   31.7198,       672,
   31.7444,       635,
   31.7689,       665,
   31.7934,       635,
    31.818,       630,
   31.8425,       604,
   31.8671,       663,
   31.8916,       627,
   31.9161,       660,
   31.9407,       641,
   31.9652,       648,
   31.9897,       617,
   32.0143,       608,
   32.0388,       666,
   32.0633,       675,
   32.0879,       669,
   32.1124,       645,
   32.1369,       668,
   32.1615,       622,
    32.186,       631,
   32.2106,       682,
   32.2351,       674,
   32.2596,       639,
   32.2842,       628,
   32.3087,       640,
   32.3332,       597,
   32.3578,       594,
   32.3823,       607,
   32.4068,       608,
   32.4314,       557,
   32.4559,       620,
   32.4805,       628,
    32.505,       599,
   32.5295,       616,
   32.5541,       535,
   32.5786,       564,
   32.6031,       563,
   32.6277,       632,
   32.6522,       568,
   32.6767,       545,
   32.7013,       588,
   32.7258,       581,
   32.7504,       568,
   32.7749,       580,
   32.7994,       574,
    32.824,       613,
   32.8485,       593,
    32.873,       585,
   32.8976,       578,
   32.9221,       585,
   32.9466,       582,
   32.9712,       577,
   32.9957,       580,
   33.0203,       617,
   33.0448,       549,
   33.0693,       570,
   33.0939,       583,
   33.1184,       574,
   33.1429,       594,
   33.1675,       585,
    33.192,       590,
   33.2165,       579,
   33.2411,       529,
   33.2656,       590,
   33.2901,       590,
   33.3147,       607,
   33.3392,       584,
   33.3638,       581,
   33.3883,       619,
   33.4128,       552,
   33.4374,       571,
   33.4619,       582,
   33.4864,       603,
    33.511,       583,
   33.5355,       565,
     33.56,       596,
   33.5846,       579,
   33.6091,       567,
   33.6337,       547,
   33.6582,       573,
   33.6827,       613,
   33.7073,       566,
   33.7318,       583,
   33.7563,       549,
   33.7809,       583,
   33.8054,       583,
   33.8299,       587,
   33.8545,       545,
    33.879,       568,
   33.9036,       548,
   33.9281,       585,
   33.9526,       551,
   33.9772,       547,
   34.0017,       552,
   34.0262,       537,
   34.0508,       550,
   34.0753,       544,
   34.0998,       533,
   34.1244,       559,
   34.1489,       597,
   34.1734,       548,
    34.198,       591,
   34.2225,       614,
   34.2471,       563,
   34.2716,       582,
   34.2961,       538,
   34.3207,       583,
   34.3452,       531,
   34.3697,       562,
   34.3943,       509,
   34.4188,       541,
   34.4433,       506,
   34.4679,       570,
   34.4924,       525,
    34.517,       527,
   34.5415,       545,
    34.566,       534,
   34.5906,       519,
   34.6151,       569,
   34.6396,       553,
   34.6642,       543,
   34.6887,       549,
   34.7132,       559,
   34.7378,       572,
   34.7623,       558,
   34.7869,       529,
   34.8114,       526,
   34.8359,       551,
   34.8605,       536,
    34.885,       526,
   34.9095,       555,
   34.9341,       552,
   34.9586,       545,
   34.9831,       560,
   35.0077,       582,
   35.0322,       525,
   35.0567,       566,
   35.0813,       543,
   35.1058,       513,
   35.1304,       542,
   35.1549,       566,
   35.1794,       545,
    35.204,       516,
   35.2285,       531,
    35.253,       495,
   35.2776,       501,
   35.3021,       519,
   35.3266,       547,
   35.3512,       535,
   35.3757,       527,
   35.4003,       512,
   35.4248,       466,
   35.4493,       507,
   35.4739,       521,
   35.4984,       534,
   35.5229,       544,
   35.5475,       509,
    35.572,       499,
   35.5965,       513,
   35.6211,       501,
   35.6456,       531,
   35.6702,       507,
   35.6947,       545,
   35.7192,       543,
   35.7438,       561,
   35.7683,       546,
   35.7928,       503,
   35.8174,       507,
   35.8419,       506,
   35.8664,       498,
    35.891,       506,
   35.9155,       540,
     35.94,       562,
   35.9646,       564,
   35.9891,       505,
   36.0137,       497,
   36.0382,       523,
   36.0627,       547,
   36.0873,       551,
   36.1118,       548,
   36.1363,       528,
   36.1609,       540,
   36.1854,       537,
   36.2099,       547,
   36.2345,       519,
    36.259,       500,
   36.2836,       538,
   36.3081,       533,
   36.3326,       503,
   36.3572,       562,
   36.3817,       500,
   36.4062,       512,
   36.4308,       508,
   36.4553,       497,
   36.4798,       515,
   36.5044,       511,
   36.5289,       467,
   36.5535,       521,
    36.578,       488,
   36.6025,       460,
   36.6271,       471,
   36.6516,       475,
   36.6761,       435,
   36.7007,       489,
   36.7252,       472,
   36.7497,       457,
   36.7743,       462,
   36.7988,       500,
   36.8233,       450,
   36.8479,       472,
   36.8724,       465,
    36.897,       462,
   36.9215,       454,
    36.946,       472,
   36.9706,       487,
   36.9951,       472,
   37.0196,       436,
   37.0442,       449,
   37.0687,       411,
   37.0932,       449,
   37.1178,       443,
   37.1423,       434,
   37.1669,       464,
   37.1914,       488,
   37.2159,       433,
   37.2405,       434,
    37.265,       493,
   37.2895,       448,
   37.3141,       471,
   37.3386,       439,
   37.3631,       429,
   37.3877,       466,
   37.4122,       457,
   37.4368,       464,
   37.4613,       438,
   37.4858,       483,
   37.5104,       463,
   37.5349,       462,
   37.5594,       454,
    37.584,       452,
   37.6085,       454,
    37.633,       460,
   37.6576,       478,
   37.6821,       449,
   37.7066,       450,
   37.7312,       407,
   37.7557,       433,
   37.7803,       447,
   37.8048,       455,
   37.8293,       385,
   37.8539,       431,
   37.8784,       451,
   37.9029,       466,
   37.9275,       402,
    37.952,       463,
   37.9765,       438,
   38.0011,       414,
   38.0256,       439,
   38.0502,       436,
   38.0747,       393,
   38.0992,       423,
   38.1238,       424,
   38.1483,       421,
   38.1728,       458,
   38.1974,       423,
   38.2219,       388,
   38.2464,       405,
    38.271,       477,
   38.2955,       378,
   38.3201,       418,
   38.3446,       403,
   38.3691,       401,
   38.3937,       392,
   38.4182,       409,
   38.4427,       418,
   38.4673,       440,
   38.4918,       426,
   38.5163,       437,
   38.5409,       423,
   38.5654,       416,
   38.5899,       395,
   38.6145,       432,
    38.639,       424,
   38.6636,       398,
   38.6881,       403,
   38.7126,       375,
   38.7372,       471,
   38.7617,       423,
   38.7862,       431,
   38.8108,       433,
   38.8353,       427,
   38.8598,       441,
   38.8844,       418,
   38.9089,       426,
   38.9335,       446,
    38.958,       415,
   38.9825,       414,
   39.0071,       445,
   39.0316,       424,
   39.0561,       380,
   39.0807,       427,
   39.1052,       421,
   39.1297,       442,
   39.1543,       428,
   39.1788,       437,
   39.2034,       440,
   39.2279,       444,
   39.2524,       431,
    39.277,       463,
   39.3015,       448,
    39.326,       390,
   39.3506,       416,
   39.3751,       415,
   39.3996,       406,
   39.4242,       412,
   39.4487,       430,
   39.4732,       444,
   39.4978,       451,
   39.5223,       487,
   39.5469,       450,
   39.5714,       491,
   39.5959,       461,
   39.6205,       424,
    39.645,       491,
   39.6695,       464,
   39.6941,       486,
   39.7186,       465,
   39.7431,       450,
   39.7677,       430,
   39.7922,       425,
   39.8168,       451,
   39.8413,       431,
   39.8658,       439,
   39.8904,       443,
   39.9149,       420,
   39.9394,       466,
    39.964,       480,
   39.9885,       432,
