;RAW4.00
[RawHeader]
Date=01/17/2022
EstimatedTotalTime=633.47
FurtherDQLReading=0
HardwareIndicator=65519
MeasuredTotalTime=633.47
MeasurementFlag=1
NumberOfMeasuredRanges=1
NumberOfRanges=1
Time=10:30:54

[VarInfo]
Type=USER
Flags=0
Value=Lab Manager

[VarInfo]
Type=SAMPLEID
Flags=0
Value=

[VarInfo]
Type=COMMENT
Flags=0
Value=

[VarInfo]
Type=UTF
Flags=0
Value=

[VarInfo]
Type=CREATOR
Flags=0
Value=BrmlToV4Converter

[VarInfo]
Type=CREATOR_VERSION
Flags=0
Value=7.3.1.0

[HardwareConfiguration]
AbsorptionFactor=9999
ActivateAbsorber=0
Alpha1=0.7093
Alpha2=0.71359
AlphaAverage=0.71073
AlphaRatio=0.5
Analyzer=0
Anode=Mo
AntiScatteringSlit=18
BeamOpticsFlags=0
Beta=0.63229
BetaRelativeIntensity=0
DeactivateAbsorber=0
DetectorSlit=9999
DivergenceSlit=0.2
GoniometerControl=0
GoniometerDiameter=560
GoniometerModel=512
GoniometerStage=7
Monochromator=0
NearSampleSlit=9999
PrimarySollerSlit=2.5
SampleChanger=0
SecondSollerSlit=9999
SynchronousAxis=0
ThinFilmAttachment=9999
WaveUnit=A

[RangeHeader]
ActuallyUsedLambda=0.71073
AdditionalDetectorMask=257
DataRecordLength=4
DelayTime=0
DisplayPlaneNumber=0
EstimatedScanTime=633
ExtraParametersMask=0
GeneratorCurrent=40
GeneratorVoltage=50
Increment=0.0245361
Increment3=0
NumberOfCompletedData=1427
NumberOfCounts=1
NumberOfDetectors=0
NumberOfDrives=2
NumberOfEncoderDrives=0
NumberOfMeasuredData=1427
NumberOfVaryingParameters=0
RangeStartTime=0
RotationSpeed=60
ScanMode=1
ScanType=Locked Coupled
SimulatedMeasConditions=0
SlitChangerIn=0
SmootingWidth=0
Start=5
Steps=1427
SynchronousRotation=0
Time=76.8

[VarInfo]
Type=PSD_DISCRIM
Flags=0
Value=0.488;0.518

[PSD]
ActualTwoTheta=9999
FirstUsedChannel=0
FixedPSD=0
PSDOpening=2.94433
PSDType=5

[Drive]
DriveFlags=1
DriveName=2Theta
DriveNumber=2
DriveOffset=0
OffsetIndex=0
OscillationAmplitude=0
OscillationSpeed=0
StartPosition=5

[Drive]
DriveFlags=1
DriveName=Theta
DriveNumber=1
DriveOffset=0
OffsetIndex=0
OscillationAmplitude=0
OscillationSpeed=0
StartPosition=2.5

[Data]
     Angle,       PSD,
         5,       149,
   5.02454,       118,
   5.04907,       125,
   5.07361,       179,
   5.09814,        83,
   5.12268,       151,
   5.14722,       135,
   5.17175,       145,
   5.19629,       191,
   5.22083,        90,
   5.24536,       166,
    5.2699,       138,
   5.29443,       125,
   5.31897,       181,
   5.34351,        95,
   5.36804,       179,
   5.39258,       144,
   5.41711,       135,
   5.44165,       199,
   5.46619,       111,
   5.49072,       175,
   5.51526,       147,
   5.53979,       171,
   5.56433,       199,
   5.58887,       112,
    5.6134,       195,
   5.63794,       154,
   5.66248,       172,
   5.68701,       183,
   5.71155,       108,
   5.73608,       210,
   5.76062,       125,
   5.78516,       167,
   5.80969,       194,
   5.83423,       115,
   5.85876,       204,
    5.8833,       131,
   5.90784,       131,
   5.93237,       198,
   5.95691,       100,
   5.98144,       209,
   6.00598,       130,
   6.03052,       131,
   6.05505,       158,
   6.07959,       104,
   6.10413,       193,
   6.12866,       125,
    6.1532,       140,
   6.17773,       168,
   6.20227,       107,
   6.22681,       166,
   6.25134,       137,
   6.27588,       155,
   6.30041,       168,
   6.32495,        89,
   6.34949,       170,
   6.37402,       104,
   6.39856,       147,
    6.4231,       179,
   6.44763,       111,
   6.47217,       173,
    6.4967,       107,
   6.52124,       132,
   6.54578,       196,
   6.57031,        73,
   6.59485,       177,
   6.61938,       127,
   6.64392,       128,
   6.66846,       172,
   6.69299,        93,
   6.71753,       180,
   6.74206,       117,
    6.7666,       138,
   6.79114,       183,
   6.81567,       110,
   6.84021,       182,
   6.86475,       132,
   6.88928,       128,
   6.91382,       161,
   6.93835,        95,
   6.96289,       183,
   6.98743,       122,
   7.01196,       155,
    7.0365,       150,
   7.06103,        94,
   7.08557,       179,
   7.11011,       127,
   7.13464,       128,
   7.15918,       160,
   7.18371,       104,
   7.20825,       166,
   7.23279,       120,
   7.25732,       137,
   7.28186,       174,
    7.3064,       101,
   7.33093,       163,
   7.35547,       138,
      7.38,       153,
   7.40454,       153,
   7.42908,       103,
   7.45361,       192,
   7.47815,       146,
   7.50268,       138,
   7.52722,       175,
   7.55176,       101,
   7.57629,       165,
   7.60083,       123,
   7.62536,       136,
    7.6499,       158,
   7.67444,        97,
   7.69897,       182,
   7.72351,       143,
   7.74805,       132,
   7.77258,       185,
   7.79712,        97,
   7.82165,       186,
   7.84619,       125,
   7.87073,       159,
   7.89526,       187,
    7.9198,       103,
   7.94433,       189,
   7.96887,       132,
   7.99341,       143,
   8.01794,       191,
   8.04248,       118,
   8.06702,       156,
   8.09155,       149,
   8.11609,       157,
   8.14062,       205,
   8.16516,       110,
    8.1897,       169,
   8.21423,       130,
   8.23877,       154,
    8.2633,       193,
   8.28784,       130,
   8.31238,       169,
   8.33691,       175,
   8.36145,       160,
   8.38598,       196,
   8.41052,       126,
   8.43506,       199,
   8.45959,       160,
   8.48413,       158,
   8.50867,       229,
    8.5332,       135,
   8.55774,       214,
   8.58227,       168,
   8.60681,       185,
   8.63135,       206,
   8.65588,       172,
   8.68042,       214,
   8.70495,       180,
   8.72949,       190,
   8.75403,       232,
   8.77856,       155,
    8.8031,       241,
   8.82763,       184,
   8.85217,       186,
   8.87671,       235,
   8.90124,       162,
   8.92578,       236,
   8.95032,       199,
   8.97485,       234,
   8.99939,       285,
   9.02392,       203,
   9.04846,       284,
     9.073,       205,
   9.09753,       227,
   9.12207,       299,
    9.1466,       217,
   9.17114,       320,
   9.19568,       252,
   9.22021,       285,
   9.24475,       324,
   9.26929,       248,
   9.29382,       376,
   9.31836,       308,
   9.34289,       318,
   9.36743,       364,
   9.39197,       311,
    9.4165,       414,
   9.44104,       319,
   9.46557,       399,
   9.49011,       402,
   9.51465,       343,
   9.53918,       436,
   9.56372,       453,
   9.58825,       451,
   9.61279,       501,
   9.63733,       436,
   9.66186,       569,
    9.6864,       597,
   9.71094,       627,
   9.73547,       652,
   9.76001,       702,
   9.78454,       708,
   9.80908,       583,
   9.83362,       577,
   9.85815,       570,
   9.88269,       572,
   9.90722,       629,
   9.93176,       609,
    9.9563,       625,
   9.98083,       634,
   10.0054,       630,
   10.0299,       633,
   10.0544,       672,
    10.079,       627,
   10.1035,       709,
    10.128,       637,
   10.1526,       675,
   10.1771,       684,
   10.2017,       722,
   10.2262,       762,
   10.2507,       725,
   10.2753,       793,
   10.2998,       704,
   10.3243,       779,
   10.3489,       815,
   10.3734,       713,
   10.3979,       828,
   10.4225,       764,
    10.447,       837,
   10.4716,       849,
   10.4961,       830,
   10.5206,       877,
   10.5452,       819,
   10.5697,       953,
   10.5942,       891,
   10.6188,       948,
   10.6433,       969,
   10.6678,      1002,
   10.6924,      1000,
   10.7169,      1029,
   10.7415,       970,
    10.766,       974,
   10.7905,       938,
   10.8151,       915,
   10.8396,       956,
   10.8641,       960,
   10.8887,       978,
   10.9132,       974,
   10.9377,      1006,
   10.9623,      1001,
   10.9868,       992,
   11.0113,      1062,
   11.0359,      1021,
   11.0604,      1044,
    11.085,      1056,
   11.1095,      1020,
    11.134,      1079,
   11.1586,      1050,
   11.1831,      1052,
   11.2076,      1105,
   11.2322,      1058,
   11.2567,      1127,
   11.2812,      1110,
   11.3058,      1258,
   11.3303,      1335,
   11.3549,      1274,
   11.3794,      1420,
   11.4039,      1511,
   11.4285,      1786,
    11.453,      1935,
   11.4775,      2176,
   11.5021,      2241,
   11.5266,      2017,
   11.5511,      1930,
   11.5757,      1719,
   11.6002,      1521,
   11.6248,      1491,
   11.6493,      1267,
   11.6738,      1206,
   11.6984,      1288,
   11.7229,      1198,
   11.7474,      1159,
    11.772,      1137,
   11.7965,      1154,
    11.821,      1127,
   11.8456,      1116,
   11.8701,      1099,
   11.8946,      1173,
   11.9192,      1113,
   11.9437,      1156,
   11.9683,      1037,
   11.9928,      1159,
   12.0173,      1152,
   12.0419,      1122,
   12.0664,      1182,
   12.0909,      1125,
   12.1155,      1227,
     12.14,      1181,
   12.1645,      1170,
   12.1891,      1203,
   12.2136,      1134,
   12.2382,      1287,
   12.2627,      1227,
   12.2872,      1285,
   12.3118,      1475,
   12.3363,      1459,
   12.3608,      1683,
   12.3854,      1917,
   12.4099,      2189,
   12.4344,      2497,
    12.459,      2668,
   12.4835,      2807,
   12.5081,      2570,
   12.5326,      2552,
   12.5571,      2160,
   12.5817,      1980,
   12.6062,      1758,
   12.6307,      1568,
   12.6553,      1406,
   12.6798,      1323,
   12.7043,      1345,
   12.7289,      1334,
   12.7534,      1245,
    12.778,      1341,
   12.8025,      1299,
    12.827,      1429,
   12.8516,      2097,
   12.8761,      6175,
   12.9006,      7940,
   12.9252,      2380,
   12.9497,      3466,
   12.9742,      4900,
   12.9988,      1905,
   13.0233,      1301,
   13.0478,      1185,
   13.0724,      1189,
   13.0969,      1196,
   13.1215,      1156,
    13.146,      1197,
   13.1705,      1137,
   13.1951,      1095,
   13.2196,      1065,
   13.2441,      1062,
   13.2687,      1078,
   13.2932,      1114,
   13.3177,      1090,
   13.3423,      1162,
   13.3668,      1159,
   13.3914,      1217,
   13.4159,      1228,
   13.4404,      1331,
    13.465,      1619,
   13.4895,      1965,
    13.514,      2406,
   13.5386,      2336,
   13.5631,      2041,
   13.5876,      1933,
   13.6122,      1740,
   13.6367,      1473,
   13.6613,      1186,
   13.6858,      1082,
   13.7103,      1023,
   13.7349,      1004,
   13.7594,      1005,
   13.7839,      1005,
   13.8085,       924,
    13.833,       932,
   13.8575,      1004,
   13.8821,       987,
   13.9066,      1001,
   13.9311,       940,
   13.9557,       948,
   13.9802,       943,
   14.0048,       919,
   14.0293,       958,
   14.0538,       923,
   14.0784,       923,
   14.1029,       964,
   14.1274,       913,
    14.152,       946,
   14.1765,       916,
    14.201,       913,
   14.2256,       961,
   14.2501,       955,
   14.2747,       901,
   14.2992,       899,
   14.3237,       934,
   14.3483,       910,
   14.3728,       931,
   14.3973,       949,
   14.4219,       917,
   14.4464,       907,
   14.4709,       934,
   14.4955,       953,
     14.52,       951,
   14.5446,       949,
   14.5691,       890,
   14.5936,       934,
   14.6182,       905,
   14.6427,       908,
   14.6672,       887,
   14.6918,       909,
   14.7163,       982,
   14.7408,       901,
   14.7654,       968,
   14.7899,       945,
   14.8144,       991,
    14.839,      1043,
   14.8635,      1095,
   14.8881,      1258,
   14.9126,      1380,
   14.9371,      1430,
   14.9617,      1679,
   14.9862,      1863,
   15.0107,      2081,
   15.0353,      2089,
   15.0598,      2210,
   15.0843,      2045,
   15.1089,      1882,
   15.1334,      1765,
    15.158,      1508,
   15.1825,      1318,
    15.207,      1290,
   15.2316,      1095,
   15.2561,      1056,
   15.2806,      1038,
   15.3052,       971,
   15.3297,       897,
   15.3542,       874,
   15.3788,       925,
   15.4033,       858,
   15.4279,       817,
   15.4524,       838,
   15.4769,       779,
   15.5015,       825,
    15.526,       846,
   15.5505,       811,
   15.5751,       788,
   15.5996,       804,
   15.6241,       778,
   15.6487,       764,
   15.6732,       780,
   15.6977,       772,
   15.7223,       736,
   15.7468,       751,
   15.7714,       760,
   15.7959,       743,
   15.8204,       743,
    15.845,       757,
   15.8695,       724,
    15.894,       663,
   15.9186,       717,
   15.9431,       660,
   15.9676,       655,
   15.9922,       702,
   16.0167,       741,
   16.0413,       695,
   16.0658,       721,
   16.0903,       671,
   16.1149,       719,
   16.1394,       645,
   16.1639,       731,
   16.1885,       715,
    16.213,       686,
   16.2375,       687,
   16.2621,       670,
   16.2866,       719,
   16.3112,       668,
   16.3357,       737,
   16.3602,       678,
   16.3848,       723,
   16.4093,       784,
   16.4338,       822,
   16.4584,       796,
   16.4829,       827,
   16.5074,       756,
    16.532,       767,
   16.5565,       730,
    16.581,       701,
   16.6056,       691,
   16.6301,       666,
   16.6547,       671,
   16.6792,       587,
   16.7037,       632,
   16.7283,       652,
   16.7528,       634,
   16.7773,       644,
   16.8019,       602,
   16.8264,       662,
   16.8509,       664,
   16.8755,       631,
      16.9,       581,
   16.9246,       614,
   16.9491,       632,
   16.9736,       621,
   16.9982,       576,
   17.0227,       590,
   17.0472,       650,
   17.0718,       584,
   17.0963,       626,
   17.1208,       615,
   17.1454,       623,
   17.1699,       613,
   17.1945,       613,
    17.219,       624,
   17.2435,       634,
   17.2681,       626,
   17.2926,       622,
   17.3171,       654,
   17.3417,       643,
   17.3662,       618,
   17.3907,       615,
   17.4153,       630,
   17.4398,       656,
   17.4643,       659,
   17.4889,       572,
   17.5134,       621,
    17.538,       633,
   17.5625,       709,
    17.587,       658,
   17.6116,       689,
   17.6361,       653,
   17.6606,       689,
   17.6852,       745,
   17.7097,       695,
   17.7342,       743,
   17.7588,       705,
   17.7833,       719,
   17.8079,       743,
   17.8324,       710,
   17.8569,       719,
   17.8815,       738,
    17.906,       804,
   17.9305,       826,
   17.9551,       953,
   17.9796,       913,
   18.0041,       856,
   18.0287,       852,
   18.0532,       845,
   18.0778,       831,
   18.1023,       695,
   18.1268,       677,
   18.1514,       695,
   18.1759,       632,
   18.2004,       696,
    18.225,       648,
   18.2495,       674,
    18.274,       638,
   18.2986,       686,
   18.3231,       637,
   18.3476,       623,
   18.3722,       594,
   18.3967,       662,
   18.4213,       687,
   18.4458,       718,
   18.4703,       637,
   18.4949,       628,
   18.5194,       728,
   18.5439,       669,
   18.5685,       672,
    18.593,       679,
   18.6175,       693,
   18.6421,       671,
   18.6666,       640,
   18.6912,       647,
   18.7157,       619,
   18.7402,       598,
   18.7648,       685,
   18.7893,       633,
   18.8138,       644,
   18.8384,       624,
   18.8629,       649,
   18.8874,       681,
    18.912,       627,
   18.9365,       640,
   18.9611,       624,
   18.9856,       662,
   19.0101,       655,
   19.0347,       660,
   19.0592,       674,
   19.0837,       647,
   19.1083,       643,
   19.1328,       664,
   19.1573,       648,
   19.1819,       667,
   19.2064,       678,
    19.231,       633,
   19.2555,       666,
     19.28,       686,
   19.3046,       644,
   19.3291,       669,
   19.3536,       718,
   19.3782,       743,
   19.4027,       766,
   19.4272,       752,
   19.4518,       684,
   19.4763,       763,
   19.5008,       766,
   19.5254,       744,
   19.5499,       851,
   19.5745,       914,
    19.599,       928,
   19.6235,       900,
   19.6481,       739,
   19.6726,       775,
   19.6971,       936,
   19.7217,       883,
   19.7462,       896,
   19.7707,       929,
   19.7953,      1012,
   19.8198,      1081,
   19.8444,      1222,
   19.8689,      1350,
   19.8934,      1289,
    19.918,      1305,
   19.9425,      1306,
    19.967,      1306,
   19.9916,      1155,
   20.0161,      1118,
   20.0406,      1055,
   20.0652,       965,
   20.0897,       883,
   20.1143,       827,
   20.1388,       743,
   20.1633,       731,
   20.1879,       724,
   20.2124,       651,
   20.2369,       644,
   20.2615,       667,
    20.286,       656,
   20.3105,       614,
   20.3351,       661,
   20.3596,       700,
   20.3841,       656,
   20.4087,       653,
   20.4332,       600,
   20.4578,       665,
   20.4823,       616,
   20.5068,       627,
   20.5314,       641,
   20.5559,       609,
   20.5804,       578,
    20.605,       609,
   20.6295,       615,
    20.654,       615,
   20.6786,       571,
   20.7031,       639,
   20.7277,       644,
   20.7522,       618,
   20.7767,       635,
   20.8013,       565,
   20.8258,       590,
   20.8503,       641,
   20.8749,       614,
   20.8994,       564,
   20.9239,       591,
   20.9485,       563,
    20.973,       620,
   20.9976,       550,
   21.0221,       636,
   21.0466,       611,
   21.0712,       608,
   21.0957,       612,
   21.1202,       636,
   21.1448,       629,
   21.1693,       596,
   21.1938,       636,
   21.2184,       610,
   21.2429,       641,
   21.2674,       684,
    21.292,       697,
   21.3165,       755,
   21.3411,       746,
   21.3656,       736,
   21.3901,       683,
   21.4147,       747,
   21.4392,       781,
   21.4637,       910,
   21.4883,       891,
   21.5128,       862,
   21.5373,       742,
   21.5619,       667,
   21.5864,       752,
    21.611,       726,
   21.6355,       731,
     21.66,       710,
   21.6846,       643,
   21.7091,       643,
   21.7336,       656,
   21.7582,       689,
   21.7827,       710,
   21.8072,       683,
   21.8318,       672,
   21.8563,       757,
   21.8809,       845,
   21.9054,       930,
   21.9299,       892,
   21.9545,       774,
    21.979,       790,
   22.0035,       821,
   22.0281,       847,
   22.0526,       882,
   22.0771,       874,
   22.1017,       880,
   22.1262,       895,
   22.1507,       861,
   22.1753,       880,
   22.1998,       835,
   22.2244,       802,
   22.2489,       809,
   22.2734,       795,
    22.298,       731,
   22.3225,       753,
    22.347,       745,
   22.3716,       759,
   22.3961,       758,
   22.4206,       792,
   22.4452,       886,
   22.4697,       937,
   22.4943,      1005,
   22.5188,      1049,
   22.5433,      1137,
   22.5679,      1174,
   22.5924,      1145,
   22.6169,      1199,
   22.6415,      1083,
    22.666,       971,
   22.6905,      1025,
   22.7151,       966,
   22.7396,       861,
   22.7642,       878,
   22.7887,       801,
   22.8132,       691,
   22.8378,       737,
   22.8623,       675,
   22.8868,       637,
   22.9114,       677,
   22.9359,       659,
   22.9604,       636,
    22.985,       622,
   23.0095,       647,
    23.034,       663,
   23.0586,       671,
   23.0831,       594,
   23.1077,       621,
   23.1322,       611,
   23.1567,       574,
   23.1813,       599,
   23.2058,       604,
   23.2303,       556,
   23.2549,       639,
   23.2794,       606,
   23.3039,       561,
   23.3285,       560,
    23.353,       556,
   23.3776,       610,
   23.4021,       575,
   23.4266,       571,
   23.4512,       614,
   23.4757,       581,
   23.5002,       564,
   23.5248,       591,
   23.5493,       576,
   23.5738,       567,
   23.5984,       596,
   23.6229,       565,
   23.6475,       595,
    23.672,       576,
   23.6965,       525,
   23.7211,       549,
   23.7456,       603,
   23.7701,       580,
   23.7947,       552,
   23.8192,       575,
   23.8437,       582,
   23.8683,       583,
   23.8928,       551,
   23.9173,       627,
   23.9419,       588,
   23.9664,       546,
    23.991,       560,
   24.0155,       585,
     24.04,       563,
   24.0646,       609,
   24.0891,       624,
   24.1136,       584,
   24.1382,       557,
   24.1627,       556,
   24.1872,       553,
   24.2118,       598,
   24.2363,       582,
   24.2609,       567,
   24.2854,       553,
   24.3099,       648,
   24.3345,       597,
    24.359,       613,
   24.3835,       592,
   24.4081,       574,
   24.4326,       564,
   24.4571,       584,
   24.4817,       581,
   24.5062,       608,
   24.5308,       565,
   24.5553,       565,
   24.5798,       581,
   24.6044,       624,
   24.6289,       593,
   24.6534,       600,
    24.678,       621,
   24.7025,       601,
    24.727,       642,
   24.7516,       630,
   24.7761,       701,
   24.8006,       657,
   24.8252,       618,
   24.8497,       698,
   24.8743,       734,
   24.8988,       684,
   24.9233,       765,
   24.9479,       748,
   24.9724,       815,
   24.9969,       815,
   25.0215,       831,
    25.046,       733,
   25.0705,       802,
   25.0951,       727,
   25.1196,       791,
   25.1442,       729,
   25.1687,       768,
   25.1932,       717,
   25.2178,       721,
   25.2423,       698,
   25.2668,       694,
   25.2914,       674,
   25.3159,       674,
   25.3404,       613,
    25.365,       666,
   25.3895,       634,
   25.4141,       618,
   25.4386,       645,
   25.4631,       703,
   25.4877,       643,
   25.5122,       608,
   25.5367,       678,
   25.5613,       658,
   25.5858,       684,
   25.6103,       669,
   25.6349,       703,
   25.6594,       730,
   25.6839,       712,
   25.7085,       651,
    25.733,       660,
   25.7576,       681,
   25.7821,       694,
   25.8066,       706,
   25.8312,       781,
   25.8557,       836,
   25.8802,       607,
   25.9048,       591,
   25.9293,       625,
   25.9538,       615,
   25.9784,       629,
   26.0029,       730,
   26.0275,       715,
    26.052,       571,
   26.0765,       552,
   26.1011,       619,
   26.1256,       599,
   26.1501,       599,
   26.1747,       594,
   26.1992,       628,
   26.2237,       625,
   26.2483,       575,
   26.2728,       621,
   26.2974,       583,
   26.3219,       596,
   26.3464,       596,
    26.371,       615,
   26.3955,       609,
     26.42,       551,
   26.4446,       611,
   26.4691,       614,
   26.4936,       607,
   26.5182,       597,
   26.5427,       615,
   26.5673,       636,
   26.5918,       634,
   26.6163,       627,
   26.6409,       649,
   26.6654,       678,
   26.6899,       696,
   26.7145,       647,
    26.739,       699,
   26.7635,       662,
   26.7881,       705,
   26.8126,       696,
   26.8371,       663,
   26.8617,       718,
   26.8862,       658,
   26.9108,       717,
   26.9353,       676,
   26.9598,       677,
   26.9844,       742,
   27.0089,       722,
   27.0334,       715,
    27.058,       684,
   27.0825,       679,
    27.107,       700,
   27.1316,       688,
   27.1561,       707,
   27.1807,       716,
   27.2052,       689,
   27.2297,       691,
   27.2543,       666,
   27.2788,       675,
   27.3033,       626,
   27.3279,       652,
   27.3524,       680,
   27.3769,       670,
   27.4015,       629,
    27.426,       625,
   27.4506,       646,
   27.4751,       595,
   27.4996,       606,
   27.5242,       607,
   27.5487,       615,
   27.5732,       608,
   27.5978,       580,
   27.6223,       610,
   27.6468,       632,
   27.6714,       586,
   27.6959,       629,
   27.7204,       650,
    27.745,       638,
   27.7695,       615,
   27.7941,       652,
   27.8186,       623,
   27.8431,       634,
   27.8677,       650,
   27.8922,       661,
   27.9167,       668,
   27.9413,       675,
   27.9658,       670,
   27.9903,       634,
   28.0149,       663,
   28.0394,       647,
    28.064,       625,
   28.0885,       667,
    28.113,       661,
   28.1376,       630,
   28.1621,       636,
   28.1866,       651,
   28.2112,       592,
   28.2357,       643,
   28.2602,       626,
   28.2848,       573,
   28.3093,       590,
   28.3339,       636,
   28.3584,       647,
   28.3829,       625,
   28.4075,       607,
    28.432,       618,
   28.4565,       613,
   28.4811,       646,
   28.5056,       633,
   28.5301,       608,
   28.5547,       664,
   28.5792,       661,
   28.6037,       678,
   28.6283,       652,
   28.6528,       669,
   28.6774,       660,
   28.7019,       641,
   28.7264,       613,
    28.751,       623,
   28.7755,       674,
      28.8,       686,
   28.8246,       632,
   28.8491,       690,
   28.8736,       676,
   28.8982,       644,
   28.9227,       643,
   28.9473,       648,
   28.9718,       625,
   28.9963,       653,
   29.0209,       586,
   29.0454,       671,
   29.0699,       659,
   29.0945,       606,
    29.119,       638,
   29.1435,       573,
   29.1681,       613,
   29.1926,       629,
   29.2172,       567,
   29.2417,       608,
   29.2662,       584,
   29.2908,       579,
   29.3153,       601,
   29.3398,       659,
   29.3644,       602,
   29.3889,       586,
   29.4134,       561,
    29.438,       609,
   29.4625,       600,
    29.487,       573,
   29.5116,       592,
   29.5361,       575,
   29.5607,       585,
   29.5852,       604,
   29.6097,       560,
   29.6343,       590,
   29.6588,       567,
   29.6833,       614,
   29.7079,       549,
   29.7324,       547,
   29.7569,       589,
   29.7815,       612,
    29.806,       549,
   29.8306,       584,
   29.8551,       557,
   29.8796,       588,
   29.9042,       605,
   29.9287,       601,
   29.9532,       590,
   29.9778,       561,
   30.0023,       574,
   30.0268,       633,
   30.0514,       596,
   30.0759,       624,
   30.1005,       589,
    30.125,       568,
   30.1495,       620,
   30.1741,       602,
   30.1986,       587,
   30.2231,       647,
   30.2477,       601,
   30.2722,       642,
   30.2967,       597,
   30.3213,       622,
   30.3458,       601,
   30.3703,       634,
   30.3949,       625,
   30.4194,       590,
    30.444,       634,
   30.4685,       546,
    30.493,       621,
   30.5176,       651,
   30.5421,       595,
   30.5666,       588,
   30.5912,       617,
   30.6157,       634,
   30.6402,       624,
   30.6648,       579,
   30.6893,       547,
   30.7139,       623,
   30.7384,       562,
   30.7629,       566,
   30.7875,       585,
    30.812,       623,
   30.8365,       611,
   30.8611,       586,
   30.8856,       589,
   30.9101,       587,
   30.9347,       596,
   30.9592,       582,
   30.9838,       551,
   31.0083,       562,
   31.0328,       553,
   31.0574,       576,
   31.0819,       556,
   31.1064,       586,
    31.131,       566,
   31.1555,       570,
     31.18,       603,
   31.2046,       553,
   31.2291,       577,
   31.2536,       580,
   31.2782,       555,
   31.3027,       593,
   31.3273,       544,
   31.3518,       578,
   31.3763,       607,
   31.4009,       636,
   31.4254,       627,
   31.4499,       647,
   31.4745,       626,
    31.499,       669,
   31.5235,       652,
   31.5481,       556,
   31.5726,       624,
   31.5972,       562,
   31.6217,       643,
   31.6462,       612,
   31.6708,       648,
   31.6953,       612,
   31.7198,       602,
   31.7444,       605,
   31.7689,       582,
   31.7934,       611,
    31.818,       586,
   31.8425,       573,
   31.8671,       605,
   31.8916,       584,
   31.9161,       584,
   31.9407,       583,
   31.9652,       610,
   31.9897,       636,
   32.0143,       616,
   32.0388,       644,
   32.0633,       642,
   32.0879,       621,
   32.1124,       662,
   32.1369,       638,
   32.1615,       642,
    32.186,       615,
   32.2106,       625,
   32.2351,       628,
   32.2596,       625,
   32.2842,       627,
   32.3087,       599,
   32.3332,       618,
   32.3578,       563,
   32.3823,       570,
   32.4068,       526,
   32.4314,       571,
   32.4559,       568,
   32.4805,       544,
    32.505,       519,
   32.5295,       552,
   32.5541,       566,
   32.5786,       556,
   32.6031,       539,
   32.6277,       500,
   32.6522,       517,
   32.6767,       559,
   32.7013,       568,
   32.7258,       525,
   32.7504,       497,
   32.7749,       537,
   32.7994,       543,
    32.824,       519,
   32.8485,       536,
    32.873,       534,
   32.8976,       541,
   32.9221,       498,
   32.9466,       570,
   32.9712,       528,
   32.9957,       545,
   33.0203,       523,
   33.0448,       519,
   33.0693,       511,
   33.0939,       516,
   33.1184,       524,
   33.1429,       556,
   33.1675,       577,
    33.192,       544,
   33.2165,       548,
   33.2411,       597,
   33.2656,       523,
   33.2901,       525,
   33.3147,       549,
   33.3392,       523,
   33.3638,       541,
   33.3883,       552,
   33.4128,       533,
   33.4374,       511,
   33.4619,       560,
   33.4864,       547,
    33.511,       525,
   33.5355,       551,
     33.56,       525,
   33.5846,       528,
   33.6091,       527,
   33.6337,       527,
   33.6582,       545,
   33.6827,       524,
   33.7073,       516,
   33.7318,       503,
   33.7563,       481,
   33.7809,       479,
   33.8054,       509,
   33.8299,       525,
   33.8545,       475,
    33.879,       523,
   33.9036,       503,
   33.9281,       501,
   33.9526,       511,
   33.9772,       528,
   34.0017,       498,
   34.0262,       517,
   34.0508,       490,
   34.0753,       498,
   34.0998,       493,
   34.1244,       522,
   34.1489,       502,
   34.1734,       546,
    34.198,       509,
   34.2225,       493,
   34.2471,       485,
   34.2716,       541,
   34.2961,       513,
   34.3207,       503,
   34.3452,       484,
   34.3697,       506,
   34.3943,       533,
   34.4188,       481,
   34.4433,       502,
   34.4679,       492,
   34.4924,       474,
    34.517,       466,
   34.5415,       472,
    34.566,       564,
   34.5906,       520,
   34.6151,       476,
   34.6396,       515,
   34.6642,       449,
   34.6887,       519,
   34.7132,       482,
   34.7378,       507,
   34.7623,       530,
   34.7869,       509,
   34.8114,       501,
   34.8359,       493,
   34.8605,       421,
    34.885,       501,
   34.9095,       511,
   34.9341,       530,
   34.9586,       498,
   34.9831,       520,
   35.0077,       519,
   35.0322,       530,
   35.0567,       508,
   35.0813,       487,
   35.1058,       527,
   35.1304,       485,
   35.1549,       486,
   35.1794,       544,
    35.204,       509,
   35.2285,       560,
    35.253,       493,
   35.2776,       471,
   35.3021,       478,
   35.3266,       463,
   35.3512,       489,
   35.3757,       530,
   35.4003,       515,
   35.4248,       468,
   35.4493,       499,
   35.4739,       463,
   35.4984,       489,
   35.5229,       447,
   35.5475,       454,
    35.572,       546,
   35.5965,       483,
   35.6211,       473,
   35.6456,       468,
   35.6702,       462,
   35.6947,       465,
   35.7192,       494,
   35.7438,       508,
   35.7683,       528,
   35.7928,       516,
   35.8174,       524,
   35.8419,       494,
   35.8664,       517,
    35.891,       491,
   35.9155,       486,
     35.94,       511,
   35.9646,       472,
   35.9891,       497,
   36.0137,       471,
   36.0382,       470,
   36.0627,       554,
   36.0873,       480,
   36.1118,       496,
   36.1363,       506,
   36.1609,       523,
   36.1854,       525,
   36.2099,       520,
   36.2345,       522,
    36.259,       452,
   36.2836,       531,
   36.3081,       505,
   36.3326,       498,
   36.3572,       504,
   36.3817,       496,
   36.4062,       449,
   36.4308,       471,
   36.4553,       443,
   36.4798,       460,
   36.5044,       474,
   36.5289,       460,
   36.5535,       480,
    36.578,       440,
   36.6025,       434,
   36.6271,       469,
   36.6516,       448,
   36.6761,       421,
   36.7007,       439,
   36.7252,       418,
   36.7497,       415,
   36.7743,       423,
   36.7988,       472,
   36.8233,       427,
   36.8479,       425,
   36.8724,       426,
    36.897,       433,
   36.9215,       395,
    36.946,       408,
   36.9706,       390,
   36.9951,       396,
   37.0196,       400,
   37.0442,       379,
   37.0687,       423,
   37.0932,       425,
   37.1178,       394,
   37.1423,       463,
   37.1669,       404,
   37.1914,       415,
   37.2159,       394,
   37.2405,       380,
    37.265,       423,
   37.2895,       383,
   37.3141,       409,
   37.3386,       416,
   37.3631,       431,
   37.3877,       408,
   37.4122,       445,
   37.4368,       446,
   37.4613,       425,
   37.4858,       424,
   37.5104,       411,
   37.5349,       427,
   37.5594,       405,
    37.584,       424,
   37.6085,       427,
    37.633,       420,
   37.6576,       411,
   37.6821,       455,
   37.7066,       422,
   37.7312,       400,
   37.7557,       422,
   37.7803,       392,
   37.8048,       412,
   37.8293,       416,
   37.8539,       389,
   37.8784,       407,
   37.9029,       413,
   37.9275,       364,
    37.952,       404,
   37.9765,       408,
   38.0011,       368,
   38.0256,       412,
   38.0502,       403,
   38.0747,       386,
   38.0992,       389,
   38.1238,       371,
   38.1483,       349,
   38.1728,       347,
   38.1974,       391,
   38.2219,       372,
   38.2464,       378,
    38.271,       396,
   38.2955,       392,
   38.3201,       402,
   38.3446,       414,
   38.3691,       396,
   38.3937,       372,
   38.4182,       371,
   38.4427,       386,
   38.4673,       372,
   38.4918,       407,
   38.5163,       364,
   38.5409,       383,
   38.5654,       370,
   38.5899,       381,
   38.6145,       337,
    38.639,       387,
   38.6636,       388,
   38.6881,       359,
   38.7126,       366,
   38.7372,       401,
   38.7617,       367,
   38.7862,       376,
   38.8108,       343,
   38.8353,       369,
   38.8598,       385,
   38.8844,       376,
   38.9089,       379,
   38.9335,       384,
    38.958,       385,
   38.9825,       376,
   39.0071,       419,
   39.0316,       394,
   39.0561,       403,
   39.0807,       376,
   39.1052,       398,
   39.1297,       349,
   39.1543,       417,
   39.1788,       392,
   39.2034,       370,
   39.2279,       404,
   39.2524,       368,
    39.277,       389,
   39.3015,       389,
    39.326,       421,
   39.3506,       374,
   39.3751,       392,
   39.3996,       381,
   39.4242,       432,
   39.4487,       416,
   39.4732,       368,
   39.4978,       420,
   39.5223,       409,
   39.5469,       421,
   39.5714,       416,
   39.5959,       456,
   39.6205,       475,
    39.645,       425,
   39.6695,       464,
   39.6941,       469,
   39.7186,       426,
   39.7431,       414,
   39.7677,       425,
   39.7922,       457,
   39.8168,       444,
   39.8413,       416,
   39.8658,       405,
   39.8904,       421,
   39.9149,       438,
   39.9394,       422,
    39.964,       439,
   39.9885,       430,
