;RAW4.00
[RawHeader]
Date=01/17/2022
EstimatedTotalTime=633.669
FurtherDQLReading=0
HardwareIndicator=65519
MeasuredTotalTime=633.669
MeasurementFlag=1
NumberOfMeasuredRanges=1
NumberOfRanges=1
Time=10:43:47

[VarInfo]
Type=USER
Flags=0
Value=Lab Manager

[VarInfo]
Type=SAMPLEID
Flags=0
Value=

[VarInfo]
Type=COMMENT
Flags=0
Value=

[VarInfo]
Type=UTF
Flags=0
Value=

[VarInfo]
Type=CREATOR
Flags=0
Value=BrmlToV4Converter

[VarInfo]
Type=CREATOR_VERSION
Flags=0
Value=7.3.1.0

[HardwareConfiguration]
AbsorptionFactor=9999
ActivateAbsorber=0
Alpha1=0.7093
Alpha2=0.71359
AlphaAverage=0.71073
AlphaRatio=0.5
Analyzer=0
Anode=Mo
AntiScatteringSlit=18
BeamOpticsFlags=0
Beta=0.63229
BetaRelativeIntensity=0
DeactivateAbsorber=0
DetectorSlit=9999
DivergenceSlit=0.2
GoniometerControl=0
GoniometerDiameter=560
GoniometerModel=512
GoniometerStage=7
Monochromator=0
NearSampleSlit=9999
PrimarySollerSlit=2.5
SampleChanger=0
SecondSollerSlit=9999
SynchronousAxis=0
ThinFilmAttachment=9999
WaveUnit=A

[RangeHeader]
ActuallyUsedLambda=0.71073
AdditionalDetectorMask=257
DataRecordLength=4
DelayTime=0
DisplayPlaneNumber=0
EstimatedScanTime=634
ExtraParametersMask=0
GeneratorCurrent=40
GeneratorVoltage=50
Increment=0.0245361
Increment3=0
NumberOfCompletedData=1427
NumberOfCounts=1
NumberOfDetectors=0
NumberOfDrives=2
NumberOfEncoderDrives=0
NumberOfMeasuredData=1427
NumberOfVaryingParameters=0
RangeStartTime=0
RotationSpeed=60
ScanMode=1
ScanType=Locked Coupled
SimulatedMeasConditions=0
SlitChangerIn=0
SmootingWidth=0
Start=5
Steps=1427
SynchronousRotation=0
Time=76.8

[VarInfo]
Type=PSD_DISCRIM
Flags=0
Value=0.488;0.518

[PSD]
ActualTwoTheta=9999
FirstUsedChannel=0
FixedPSD=0
PSDOpening=2.94433
PSDType=5

[Drive]
DriveFlags=1
DriveName=2Theta
DriveNumber=2
DriveOffset=0
OffsetIndex=0
OscillationAmplitude=0
OscillationSpeed=0
StartPosition=5

[Drive]
DriveFlags=1
DriveName=Theta
DriveNumber=1
DriveOffset=0
OffsetIndex=0
OscillationAmplitude=0
OscillationSpeed=0
StartPosition=2.5

[Data]
     Angle,       PSD,
         5,       275,
   5.02454,       249,
   5.04907,       198,
   5.07361,       276,
   5.09814,       206,
   5.12268,       275,
   5.14722,       315,
   5.17175,       208,
   5.19629,       341,
   5.22083,       213,
   5.24536,       320,
    5.2699,       303,
   5.29443,       241,
   5.31897,       365,
   5.34351,       201,
   5.36804,       344,
   5.39258,       319,
   5.41711,       249,
   5.44165,       382,
   5.46619,       218,
   5.49072,       362,
   5.51526,       329,
   5.53979,       272,
   5.56433,       339,
   5.58887,       221,
    5.6134,       369,
   5.63794,       347,
   5.66248,       265,
   5.68701,       365,
   5.71155,       197,
   5.73608,       328,
   5.76062,       289,
   5.78516,       227,
   5.80969,       367,
   5.83423,       197,
   5.85876,       325,
    5.8833,       298,
   5.90784,       216,
   5.93237,       310,
   5.95691,       193,
   5.98144,       320,
   6.00598,       282,
   6.03052,       202,
   6.05505,       314,
   6.07959,       180,
   6.10413,       275,
   6.12866,       256,
    6.1532,       164,
   6.17773,       254,
   6.20227,       175,
   6.22681,       267,
   6.25134,       232,
   6.27588,       195,
   6.30041,       278,
   6.32495,       166,
   6.34949,       249,
   6.37402,       217,
   6.39856,       166,
    6.4231,       270,
   6.44763,       160,
   6.47217,       257,
    6.4967,       234,
   6.52124,       145,
   6.54578,       275,
   6.57031,       167,
   6.59485,       233,
   6.61938,       222,
   6.64392,       165,
   6.66846,       289,
   6.69299,       166,
   6.71753,       229,
   6.74206,       222,
    6.7666,       153,
   6.79114,       261,
   6.81567,       148,
   6.84021,       216,
   6.86475,       224,
   6.88928,       169,
   6.91382,       231,
   6.93835,       149,
   6.96289,       211,
   6.98743,       249,
   7.01196,       157,
    7.0365,       256,
   7.06103,       149,
   7.08557,       234,
   7.11011,       211,
   7.13464,       145,
   7.15918,       250,
   7.18371,       128,
   7.20825,       215,
   7.23279,       212,
   7.25732,       126,
   7.28186,       256,
    7.3064,       139,
   7.33093,       205,
   7.35547,       187,
      7.38,       153,
   7.40454,       252,
   7.42908,       121,
   7.45361,       217,
   7.47815,       222,
   7.50268,       126,
   7.52722,       243,
   7.55176,       128,
   7.57629,       218,
   7.60083,       209,
   7.62536,       140,
    7.6499,       237,
   7.67444,       125,
   7.69897,       189,
   7.72351,       219,
   7.74805,       147,
   7.77258,       222,
   7.79712,       138,
   7.82165,       211,
   7.84619,       209,
   7.87073,       151,
   7.89526,       237,
    7.9198,       154,
   7.94433,       208,
   7.96887,       260,
   7.99341,       197,
   8.01794,       255,
   8.04248,       161,
   8.06702,       235,
   8.09155,       219,
   8.11609,       188,
   8.14062,       269,
   8.16516,       165,
    8.1897,       236,
   8.21423,       247,
   8.23877,       188,
    8.2633,       248,
   8.28784,       154,
   8.31238,       227,
   8.33691,       227,
   8.36145,       170,
   8.38598,       254,
   8.41052,       175,
   8.43506,       228,
   8.45959,       249,
   8.48413,       174,
   8.50867,       260,
    8.5332,       170,
   8.55774,       262,
   8.58227,       253,
   8.60681,       192,
   8.63135,       262,
   8.65588,       211,
   8.68042,       270,
   8.70495,       254,
   8.72949,       217,
   8.75403,       292,
   8.77856,       195,
    8.8031,       247,
   8.82763,       286,
   8.85217,       209,
   8.87671,       292,
   8.90124,       186,
   8.92578,       295,
   8.95032,       296,
   8.97485,       225,
   8.99939,       340,
   9.02392,       243,
   9.04846,       277,
     9.073,       299,
   9.09753,       250,
   9.12207,       363,
    9.1466,       255,
   9.17114,       382,
   9.19568,       316,
   9.22021,       283,
   9.24475,       396,
   9.26929,       268,
   9.29382,       360,
   9.31836,       377,
   9.34289,       313,
   9.36743,       441,
   9.39197,       355,
    9.4165,       428,
   9.44104,       437,
   9.46557,       395,
   9.49011,       502,
   9.51465,       421,
   9.53918,       488,
   9.56372,       470,
   9.58825,       479,
   9.61279,       570,
   9.63733,       552,
   9.66186,       639,
    9.6864,       745,
   9.71094,       652,
   9.73547,       761,
   9.76001,       643,
   9.78454,       724,
   9.80908,       678,
   9.83362,       603,
   9.85815,       733,
   9.88269,       613,
   9.90722,       709,
   9.93176,       696,
    9.9563,       649,
   9.98083,       790,
   10.0054,       717,
   10.0299,       756,
   10.0544,       766,
    10.079,       749,
   10.1035,       784,
    10.128,       763,
   10.1526,       847,
   10.1771,       863,
   10.2017,       813,
   10.2262,       863,
   10.2507,       879,
   10.2753,       890,
   10.2998,       850,
   10.3243,       887,
   10.3489,       953,
   10.3734,       895,
   10.3979,       963,
   10.4225,       925,
    10.447,       951,
   10.4716,      1029,
   10.4961,       929,
   10.5206,      1022,
   10.5452,      1009,
   10.5697,      1050,
   10.5942,      1093,
   10.6188,      1076,
   10.6433,      1105,
   10.6678,      1170,
   10.6924,      1076,
   10.7169,      1189,
   10.7415,      1118,
    10.766,      1136,
   10.7905,      1124,
   10.8151,      1135,
   10.8396,      1068,
   10.8641,      1111,
   10.8887,      1140,
   10.9132,      1241,
   10.9377,      1127,
   10.9623,      1157,
   10.9868,      1243,
   11.0113,      1231,
   11.0359,      1165,
   11.0604,      1153,
    11.085,      1255,
   11.1095,      1275,
    11.134,      1215,
   11.1586,      1258,
   11.1831,      1240,
   11.2076,      1257,
   11.2322,      1220,
   11.2567,      1269,
   11.2812,      1324,
   11.3058,      1384,
   11.3303,      1492,
   11.3549,      1470,
   11.3794,      1598,
   11.4039,      1815,
   11.4285,      1906,
    11.453,      2146,
   11.4775,      2199,
   11.5021,      2126,
   11.5266,      2032,
   11.5511,      1840,
   11.5757,      1762,
   11.6002,      1573,
   11.6248,      1469,
   11.6493,      1411,
   11.6738,      1344,
   11.6984,      1360,
   11.7229,      1352,
   11.7474,      1215,
    11.772,      1301,
   11.7965,      1271,
    11.821,      1268,
   11.8456,      1270,
   11.8701,      1241,
   11.8946,      1301,
   11.9192,      1265,
   11.9437,      1256,
   11.9683,      1299,
   11.9928,      1272,
   12.0173,      1341,
   12.0419,      1303,
   12.0664,      1256,
   12.0909,      1341,
   12.1155,      1307,
     12.14,      1287,
   12.1645,      1279,
   12.1891,      1333,
   12.2136,      1280,
   12.2382,      1369,
   12.2627,      1419,
   12.2872,      1530,
   12.3118,      1539,
   12.3363,      1701,
   12.3608,      1915,
   12.3854,      2132,
   12.4099,      2405,
   12.4344,      2564,
    12.459,      2612,
   12.4835,      2479,
   12.5081,      2379,
   12.5326,      2216,
   12.5571,      2034,
   12.5817,      1738,
   12.6062,      1581,
   12.6307,      1435,
   12.6553,      1348,
   12.6798,      1360,
   12.7043,      1309,
   12.7289,      1251,
   12.7534,      1275,
    12.778,      1285,
   12.8025,      1214,
    12.827,      1254,
   12.8516,      1169,
   12.8761,      1193,
   12.9006,      1163,
   12.9252,      1151,
   12.9497,      1221,
   12.9742,      1172,
   12.9988,      1219,
   13.0233,      1124,
   13.0478,      1188,
   13.0724,      1175,
   13.0969,      1152,
   13.1215,      1132,
    13.146,      1171,
   13.1705,      1125,
   13.1951,      1154,
   13.2196,      1154,
   13.2441,      1104,
   13.2687,      1149,
   13.2932,      1188,
   13.3177,      1145,
   13.3423,      1138,
   13.3668,      1172,
   13.3914,      1245,
   13.4159,      1246,
   13.4404,      1265,
    13.465,      1428,
   13.4895,      1684,
    13.514,      1993,
   13.5386,      1839,
   13.5631,      1708,
   13.5876,      1578,
   13.6122,      1464,
   13.6367,      1358,
   13.6613,      1162,
   13.6858,      1201,
   13.7103,      1098,
   13.7349,      1154,
   13.7594,      1088,
   13.7839,      1083,
   13.8085,      1098,
    13.833,      1041,
   13.8575,      1068,
   13.8821,      1118,
   13.9066,      1051,
   13.9311,      1072,
   13.9557,      1040,
   13.9802,      1072,
   14.0048,      1054,
   14.0293,      1054,
   14.0538,      1054,
   14.0784,      1093,
   14.1029,      1033,
   14.1274,      1069,
    14.152,      1017,
   14.1765,      1015,
    14.201,      1076,
   14.2256,      1032,
   14.2501,      1079,
   14.2747,      1086,
   14.2992,      1022,
   14.3237,      1033,
   14.3483,       993,
   14.3728,      1015,
   14.3973,      1042,
   14.4219,       989,
   14.4464,       979,
   14.4709,       967,
   14.4955,      1054,
     14.52,       959,
   14.5446,      1022,
   14.5691,      1047,
   14.5936,       990,
   14.6182,       987,
   14.6427,      1052,
   14.6672,       995,
   14.6918,       981,
   14.7163,      1041,
   14.7408,       962,
   14.7654,      1126,
   14.7899,      1062,
   14.8144,      1119,
    14.839,      1136,
   14.8635,      1242,
   14.8881,      1237,
   14.9126,      1408,
   14.9371,      1673,
   14.9617,      1707,
   14.9862,      1983,
   15.0107,      2024,
   15.0353,      2021,
   15.0598,      1969,
   15.0843,      1815,
   15.1089,      1769,
   15.1334,      1535,
    15.158,      1426,
   15.1825,      1355,
    15.207,      1157,
   15.2316,      1140,
   15.2561,      1092,
   15.2806,      1042,
   15.3052,      1056,
   15.3297,       995,
   15.3542,       977,
   15.3788,       922,
   15.4033,       999,
   15.4279,       889,
   15.4524,       868,
   15.4769,       943,
   15.5015,       875,
    15.526,       821,
   15.5505,       816,
   15.5751,       838,
   15.5996,       822,
   15.6241,       838,
   15.6487,       875,
   15.6732,       854,
   15.6977,       817,
   15.7223,       831,
   15.7468,       867,
   15.7714,       834,
   15.7959,       835,
   15.8204,       795,
    15.845,       790,
   15.8695,       784,
    15.894,       802,
   15.9186,       818,
   15.9431,       826,
   15.9676,       807,
   15.9922,       770,
   16.0167,       796,
   16.0413,       781,
   16.0658,       793,
   16.0903,       755,
   16.1149,       761,
   16.1394,       773,
   16.1639,       760,
   16.1885,       773,
    16.213,       772,
   16.2375,       782,
   16.2621,       764,
   16.2866,       789,
   16.3112,       746,
   16.3357,       779,
   16.3602,       765,
   16.3848,       792,
   16.4093,       850,
   16.4338,       866,
   16.4584,       861,
   16.4829,       848,
   16.5074,       799,
    16.532,       814,
   16.5565,       756,
    16.581,       731,
   16.6056,       770,
   16.6301,       738,
   16.6547,       735,
   16.6792,       765,
   16.7037,       694,
   16.7283,       737,
   16.7528,       707,
   16.7773,       739,
   16.8019,       733,
   16.8264,       731,
   16.8509,       661,
   16.8755,       676,
      16.9,       654,
   16.9246,       671,
   16.9491,       673,
   16.9736,       728,
   16.9982,       716,
   17.0227,       689,
   17.0472,       684,
   17.0718,       677,
   17.0963,       664,
   17.1208,       706,
   17.1454,       668,
   17.1699,       707,
   17.1945,       669,
    17.219,       705,
   17.2435,       733,
   17.2681,       671,
   17.2926,       679,
   17.3171,       684,
   17.3417,       662,
   17.3662,       658,
   17.3907,       727,
   17.4153,       695,
   17.4398,       706,
   17.4643,       692,
   17.4889,       693,
   17.5134,       696,
    17.538,       671,
   17.5625,       677,
    17.587,       736,
   17.6116,       745,
   17.6361,       726,
   17.6606,       733,
   17.6852,       747,
   17.7097,       688,
   17.7342,       728,
   17.7588,       773,
   17.7833,       740,
   17.8079,       765,
   17.8324,       800,
   17.8569,       759,
   17.8815,       765,
    17.906,       809,
   17.9305,       808,
   17.9551,       849,
   17.9796,       893,
   18.0041,       847,
   18.0287,       771,
   18.0532,       758,
   18.0778,       816,
   18.1023,       765,
   18.1268,       807,
   18.1514,       762,
   18.1759,       735,
   18.2004,       705,
    18.225,       700,
   18.2495,       675,
    18.274,       720,
   18.2986,       685,
   18.3231,       704,
   18.3476,       719,
   18.3722,       653,
   18.3967,       720,
   18.4213,       722,
   18.4458,       642,
   18.4703,       675,
   18.4949,       735,
   18.5194,       743,
   18.5439,       688,
   18.5685,       716,
    18.593,       688,
   18.6175,       727,
   18.6421,       692,
   18.6666,       726,
   18.6912,       703,
   18.7157,       708,
   18.7402,       717,
   18.7648,       668,
   18.7893,       688,
   18.8138,       686,
   18.8384,       688,
   18.8629,       691,
   18.8874,       685,
    18.912,       700,
   18.9365,       708,
   18.9611,       682,
   18.9856,       735,
   19.0101,       732,
   19.0347,       712,
   19.0592,       713,
   19.0837,       694,
   19.1083,       678,
   19.1328,       649,
   19.1573,       654,
   19.1819,       768,
   19.2064,       680,
    19.231,       687,
   19.2555,       662,
     19.28,       692,
   19.3046,       737,
   19.3291,       760,
   19.3536,       781,
   19.3782,       791,
   19.4027,       779,
   19.4272,       807,
   19.4518,       797,
   19.4763,       753,
   19.5008,       794,
   19.5254,       790,
   19.5499,       810,
   19.5745,       821,
    19.599,       790,
   19.6235,       810,
   19.6481,       804,
   19.6726,       776,
   19.6971,       819,
   19.7217,       902,
   19.7462,       914,
   19.7707,       948,
   19.7953,       943,
   19.8198,      1104,
   19.8444,      1163,
   19.8689,      1212,
   19.8934,      1282,
    19.918,      1281,
   19.9425,      1199,
    19.967,      1137,
   19.9916,      1060,
   20.0161,       992,
   20.0406,       928,
   20.0652,       936,
   20.0897,       871,
   20.1143,       837,
   20.1388,       786,
   20.1633,       710,
   20.1879,       740,
   20.2124,       695,
   20.2369,       734,
   20.2615,       715,
    20.286,       708,
   20.3105,       715,
   20.3351,       666,
   20.3596,       664,
   20.3841,       636,
   20.4087,       664,
   20.4332,       600,
   20.4578,       673,
   20.4823,       647,
   20.5068,       658,
   20.5314,       703,
   20.5559,       682,
   20.5804,       667,
    20.605,       595,
   20.6295,       622,
    20.654,       648,
   20.6786,       679,
   20.7031,       628,
   20.7277,       642,
   20.7522,       648,
   20.7767,       603,
   20.8013,       639,
   20.8258,       628,
   20.8503,       659,
   20.8749,       674,
   20.8994,       657,
   20.9239,       643,
   20.9485,       668,
    20.973,       646,
   20.9976,       643,
   21.0221,       666,
   21.0466,       617,
   21.0712,       646,
   21.0957,       645,
   21.1202,       664,
   21.1448,       638,
   21.1693,       646,
   21.1938,       642,
   21.2184,       655,
   21.2429,       672,
   21.2674,       689,
    21.292,       707,
   21.3165,       790,
   21.3411,       755,
   21.3656,       779,
   21.3901,       745,
   21.4147,       729,
   21.4392,       774,
   21.4637,       767,
   21.4883,       739,
   21.5128,       783,
   21.5373,       775,
   21.5619,       737,
   21.5864,       695,
    21.611,       722,
   21.6355,       670,
     21.66,       666,
   21.6846,       670,
   21.7091,       762,
   21.7336,       722,
   21.7582,       761,
   21.7827,       773,
   21.8072,       655,
   21.8318,       768,
   21.8563,       696,
   21.8809,       772,
   21.9054,       825,
   21.9299,       826,
   21.9545,       759,
    21.979,       829,
   22.0035,       812,
   22.0281,       839,
   22.0526,       787,
   22.0771,       847,
   22.1017,       815,
   22.1262,       847,
   22.1507,       803,
   22.1753,       855,
   22.1998,       822,
   22.2244,       826,
   22.2489,       793,
   22.2734,       758,
    22.298,       809,
   22.3225,       712,
    22.347,       773,
   22.3716,       822,
   22.3961,       799,
   22.4206,       836,
   22.4452,       857,
   22.4697,       953,
   22.4943,       956,
   22.5188,      1091,
   22.5433,      1072,
   22.5679,      1191,
   22.5924,      1077,
   22.6169,      1111,
   22.6415,       974,
    22.666,      1007,
   22.6905,       925,
   22.7151,       881,
   22.7396,       850,
   22.7642,       799,
   22.7887,       809,
   22.8132,       739,
   22.8378,       680,
   22.8623,       705,
   22.8868,       712,
   22.9114,       679,
   22.9359,       685,
   22.9604,       725,
    22.985,       708,
   23.0095,       680,
    23.034,       673,
   23.0586,       644,
   23.0831,       643,
   23.1077,       623,
   23.1322,       671,
   23.1567,       667,
   23.1813,       629,
   23.2058,       614,
   23.2303,       622,
   23.2549,       639,
   23.2794,       608,
   23.3039,       598,
   23.3285,       610,
    23.353,       630,
   23.3776,       624,
   23.4021,       618,
   23.4266,       615,
   23.4512,       630,
   23.4757,       676,
   23.5002,       584,
   23.5248,       616,
   23.5493,       664,
   23.5738,       630,
   23.5984,       641,
   23.6229,       595,
   23.6475,       649,
    23.672,       658,
   23.6965,       621,
   23.7211,       592,
   23.7456,       585,
   23.7701,       630,
   23.7947,       648,
   23.8192,       606,
   23.8437,       621,
   23.8683,       610,
   23.8928,       609,
   23.9173,       620,
   23.9419,       608,
   23.9664,       577,
    23.991,       590,
   24.0155,       634,
     24.04,       688,
   24.0646,       644,
   24.0891,       633,
   24.1136,       605,
   24.1382,       613,
   24.1627,       644,
   24.1872,       624,
   24.2118,       610,
   24.2363,       629,
   24.2609,       642,
   24.2854,       652,
   24.3099,       602,
   24.3345,       623,
    24.359,       692,
   24.3835,       586,
   24.4081,       641,
   24.4326,       657,
   24.4571,       662,
   24.4817,       689,
   24.5062,       647,
   24.5308,       659,
   24.5553,       672,
   24.5798,       664,
   24.6044,       620,
   24.6289,       664,
   24.6534,       641,
    24.678,       623,
   24.7025,       682,
    24.727,       661,
   24.7516,       679,
   24.7761,       722,
   24.8006,       751,
   24.8252,       746,
   24.8497,       707,
   24.8743,       752,
   24.8988,       819,
   24.9233,       793,
   24.9479,       796,
   24.9724,       813,
   24.9969,       798,
   25.0215,       792,
    25.046,       789,
   25.0705,       772,
   25.0951,       776,
   25.1196,       753,
   25.1442,       819,
   25.1687,       729,
   25.1932,       692,
   25.2178,       744,
   25.2423,       735,
   25.2668,       707,
   25.2914,       676,
   25.3159,       675,
   25.3404,       697,
    25.365,       666,
   25.3895,       685,
   25.4141,       719,
   25.4386,       683,
   25.4631,       683,
   25.4877,       677,
   25.5122,       726,
   25.5367,       717,
   25.5613,       656,
   25.5858,       701,
   25.6103,       749,
   25.6349,       686,
   25.6594,       733,
   25.6839,       699,
   25.7085,       656,
    25.733,       674,
   25.7576,       661,
   25.7821,       675,
   25.8066,       677,
   25.8312,       694,
   25.8557,       676,
   25.8802,       692,
   25.9048,       654,
   25.9293,       611,
   25.9538,       685,
   25.9784,       640,
   26.0029,       693,
   26.0275,       699,
    26.052,       689,
   26.0765,       650,
   26.1011,       649,
   26.1256,       669,
   26.1501,       658,
   26.1747,       631,
   26.1992,       631,
   26.2237,       648,
   26.2483,       652,
   26.2728,       634,
   26.2974,       639,
   26.3219,       654,
   26.3464,       647,
    26.371,       628,
   26.3955,       620,
     26.42,       642,
   26.4446,       682,
   26.4691,       666,
   26.4936,       690,
   26.5182,       650,
   26.5427,       677,
   26.5673,       674,
   26.5918,       676,
   26.6163,       685,
   26.6409,       658,
   26.6654,       658,
   26.6899,       676,
   26.7145,       692,
    26.739,       686,
   26.7635,       670,
   26.7881,       706,
   26.8126,       755,
   26.8371,       766,
   26.8617,       671,
   26.8862,       744,
   26.9108,       699,
   26.9353,       693,
   26.9598,       736,
   26.9844,       702,
   27.0089,       761,
   27.0334,       742,
    27.058,       688,
   27.0825,       702,
    27.107,       683,
   27.1316,       699,
   27.1561,       698,
   27.1807,       701,
   27.2052,       649,
   27.2297,       751,
   27.2543,       693,
   27.2788,       676,
   27.3033,       692,
   27.3279,       693,
   27.3524,       651,
   27.3769,       650,
   27.4015,       706,
    27.426,       659,
   27.4506,       613,
   27.4751,       653,
   27.4996,       669,
   27.5242,       699,
   27.5487,       680,
   27.5732,       646,
   27.5978,       669,
   27.6223,       673,
   27.6468,       660,
   27.6714,       655,
   27.6959,       666,
   27.7204,       658,
    27.745,       633,
   27.7695,       677,
   27.7941,       663,
   27.8186,       732,
   27.8431,       688,
   27.8677,       726,
   27.8922,       697,
   27.9167,       688,
   27.9413,       693,
   27.9658,       755,
   27.9903,       675,
   28.0149,       712,
   28.0394,       652,
    28.064,       687,
   28.0885,       720,
    28.113,       730,
   28.1376,       640,
   28.1621,       639,
   28.1866,       657,
   28.2112,       649,
   28.2357,       712,
   28.2602,       638,
   28.2848,       611,
   28.3093,       619,
   28.3339,       648,
   28.3584,       688,
   28.3829,       729,
   28.4075,       709,
    28.432,       670,
   28.4565,       690,
   28.4811,       696,
   28.5056,       687,
   28.5301,       678,
   28.5547,       661,
   28.5792,       639,
   28.6037,       693,
   28.6283,       713,
   28.6528,       671,
   28.6774,       635,
   28.7019,       665,
   28.7264,       625,
    28.751,       654,
   28.7755,       687,
      28.8,       700,
   28.8246,       603,
   28.8491,       704,
   28.8736,       715,
   28.8982,       669,
   28.9227,       681,
   28.9473,       673,
   28.9718,       646,
   28.9963,       615,
   29.0209,       655,
   29.0454,       673,
   29.0699,       640,
   29.0945,       675,
    29.119,       625,
   29.1435,       678,
   29.1681,       624,
   29.1926,       681,
   29.2172,       648,
   29.2417,       641,
   29.2662,       683,
   29.2908,       616,
   29.3153,       606,
   29.3398,       635,
   29.3644,       658,
   29.3889,       605,
   29.4134,       637,
    29.438,       629,
   29.4625,       638,
    29.487,       632,
   29.5116,       601,
   29.5361,       685,
   29.5607,       600,
   29.5852,       624,
   29.6097,       630,
   29.6343,       639,
   29.6588,       636,
   29.6833,       638,
   29.7079,       689,
   29.7324,       619,
   29.7569,       682,
   29.7815,       611,
    29.806,       661,
   29.8306,       599,
   29.8551,       611,
   29.8796,       625,
   29.9042,       628,
   29.9287,       653,
   29.9532,       673,
   29.9778,       618,
   30.0023,       667,
   30.0268,       659,
   30.0514,       661,
   30.0759,       661,
   30.1005,       683,
    30.125,       667,
   30.1495,       672,
   30.1741,       637,
   30.1986,       628,
   30.2231,       669,
   30.2477,       661,
   30.2722,       636,
   30.2967,       627,
   30.3213,       634,
   30.3458,       671,
   30.3703,       645,
   30.3949,       618,
   30.4194,       692,
    30.444,       662,
   30.4685,       654,
    30.493,       697,
   30.5176,       637,
   30.5421,       633,
   30.5666,       614,
   30.5912,       623,
   30.6157,       624,
   30.6402,       642,
   30.6648,       611,
   30.6893,       652,
   30.7139,       616,
   30.7384,       636,
   30.7629,       620,
   30.7875,       630,
    30.812,       631,
   30.8365,       623,
   30.8611,       636,
   30.8856,       604,
   30.9101,       625,
   30.9347,       647,
   30.9592,       599,
   30.9838,       566,
   31.0083,       625,
   31.0328,       624,
   31.0574,       592,
   31.0819,       593,
   31.1064,       642,
    31.131,       595,
   31.1555,       611,
     31.18,       627,
   31.2046,       638,
   31.2291,       641,
   31.2536,       649,
   31.2782,       599,
   31.3027,       577,
   31.3273,       587,
   31.3518,       609,
   31.3763,       649,
   31.4009,       659,
   31.4254,       661,
   31.4499,       686,
   31.4745,       663,
    31.499,       665,
   31.5235,       636,
   31.5481,       629,
   31.5726,       697,
   31.5972,       666,
   31.6217,       666,
   31.6462,       711,
   31.6708,       684,
   31.6953,       683,
   31.7198,       628,
   31.7444,       660,
   31.7689,       610,
   31.7934,       609,
    31.818,       675,
   31.8425,       617,
   31.8671,       716,
   31.8916,       667,
   31.9161,       638,
   31.9407,       618,
   31.9652,       677,
   31.9897,       624,
   32.0143,       607,
   32.0388,       707,
   32.0633,       695,
   32.0879,       674,
   32.1124,       666,
   32.1369,       655,
   32.1615,       634,
    32.186,       664,
   32.2106,       658,
   32.2351,       639,
   32.2596,       615,
   32.2842,       623,
   32.3087,       635,
   32.3332,       633,
   32.3578,       585,
   32.3823,       624,
   32.4068,       556,
   32.4314,       592,
   32.4559,       599,
   32.4805,       595,
    32.505,       621,
   32.5295,       607,
   32.5541,       585,
   32.5786,       561,
   32.6031,       565,
   32.6277,       594,
   32.6522,       581,
   32.6767,       578,
   32.7013,       597,
   32.7258,       578,
   32.7504,       573,
   32.7749,       546,
   32.7994,       541,
    32.824,       570,
   32.8485,       604,
    32.873,       578,
   32.8976,       567,
   32.9221,       541,
   32.9466,       585,
   32.9712,       546,
   32.9957,       576,
   33.0203,       578,
   33.0448,       563,
   33.0693,       528,
   33.0939,       590,
   33.1184,       559,
   33.1429,       571,
   33.1675,       569,
    33.192,       560,
   33.2165,       577,
   33.2411,       590,
   33.2656,       605,
   33.2901,       615,
   33.3147,       604,
   33.3392,       625,
   33.3638,       608,
   33.3883,       555,
   33.4128,       583,
   33.4374,       596,
   33.4619,       558,
   33.4864,       556,
    33.511,       543,
   33.5355,       552,
     33.56,       606,
   33.5846,       539,
   33.6091,       565,
   33.6337,       550,
   33.6582,       563,
   33.6827,       560,
   33.7073,       547,
   33.7318,       552,
   33.7563,       552,
   33.7809,       525,
   33.8054,       558,
   33.8299,       561,
   33.8545,       545,
    33.879,       539,
   33.9036,       563,
   33.9281,       568,
   33.9526,       564,
   33.9772,       566,
   34.0017,       547,
   34.0262,       539,
   34.0508,       534,
   34.0753,       523,
   34.0998,       569,
   34.1244,       561,
   34.1489,       521,
   34.1734,       540,
    34.198,       512,
   34.2225,       571,
   34.2471,       533,
   34.2716,       478,
   34.2961,       539,
   34.3207,       532,
   34.3452,       504,
   34.3697,       554,
   34.3943,       518,
   34.4188,       488,
   34.4433,       533,
   34.4679,       574,
   34.4924,       517,
    34.517,       508,
   34.5415,       542,
    34.566,       548,
   34.5906,       520,
   34.6151,       532,
   34.6396,       495,
   34.6642,       524,
   34.6887,       515,
   34.7132,       531,
   34.7378,       534,
   34.7623,       541,
   34.7869,       485,
   34.8114,       551,
   34.8359,       545,
   34.8605,       532,
    34.885,       573,
   34.9095,       538,
   34.9341,       562,
   34.9586,       600,
   34.9831,       533,
   35.0077,       554,
   35.0322,       535,
   35.0567,       539,
   35.0813,       507,
   35.1058,       565,
   35.1304,       530,
   35.1549,       562,
   35.1794,       529,
    35.204,       535,
   35.2285,       523,
    35.253,       491,
   35.2776,       482,
   35.3021,       520,
   35.3266,       485,
   35.3512,       533,
   35.3757,       485,
   35.4003,       506,
   35.4248,       499,
   35.4493,       536,
   35.4739,       502,
   35.4984,       514,
   35.5229,       496,
   35.5475,       498,
    35.572,       484,
   35.5965,       482,
   35.6211,       495,
   35.6456,       499,
   35.6702,       547,
   35.6947,       519,
   35.7192,       534,
   35.7438,       573,
   35.7683,       507,
   35.7928,       485,
   35.8174,       503,
   35.8419,       535,
   35.8664,       538,
    35.891,       498,
   35.9155,       525,
     35.94,       546,
   35.9646,       513,
   35.9891,       522,
   36.0137,       554,
   36.0382,       561,
   36.0627,       540,
   36.0873,       569,
   36.1118,       537,
   36.1363,       523,
   36.1609,       532,
   36.1854,       497,
   36.2099,       518,
   36.2345,       550,
    36.259,       508,
   36.2836,       517,
   36.3081,       463,
   36.3326,       502,
   36.3572,       505,
   36.3817,       503,
   36.4062,       520,
   36.4308,       485,
   36.4553,       485,
   36.4798,       494,
   36.5044,       499,
   36.5289,       492,
   36.5535,       511,
    36.578,       498,
   36.6025,       447,
   36.6271,       457,
   36.6516,       457,
   36.6761,       441,
   36.7007,       447,
   36.7252,       448,
   36.7497,       479,
   36.7743,       445,
   36.7988,       456,
   36.8233,       479,
   36.8479,       480,
   36.8724,       457,
    36.897,       465,
   36.9215,       441,
    36.946,       429,
   36.9706,       460,
   36.9951,       445,
   37.0196,       425,
   37.0442,       455,
   37.0687,       438,
   37.0932,       437,
   37.1178,       470,
   37.1423,       461,
   37.1669,       424,
   37.1914,       462,
   37.2159,       413,
   37.2405,       420,
    37.265,       436,
   37.2895,       479,
   37.3141,       455,
   37.3386,       445,
   37.3631,       443,
   37.3877,       460,
   37.4122,       416,
   37.4368,       466,
   37.4613,       481,
   37.4858,       450,
   37.5104,       452,
   37.5349,       416,
   37.5594,       449,
    37.584,       460,
   37.6085,       471,
    37.633,       486,
   37.6576,       434,
   37.6821,       469,
   37.7066,       416,
   37.7312,       414,
   37.7557,       422,
   37.7803,       420,
   37.8048,       431,
   37.8293,       427,
   37.8539,       462,
   37.8784,       419,
   37.9029,       454,
   37.9275,       408,
    37.952,       401,
   37.9765,       429,
   38.0011,       421,
   38.0256,       394,
   38.0502,       417,
   38.0747,       386,
   38.0992,       444,
   38.1238,       407,
   38.1483,       441,
   38.1728,       398,
   38.1974,       382,
   38.2219,       396,
   38.2464,       386,
    38.271,       388,
   38.2955,       400,
   38.3201,       435,
   38.3446,       418,
   38.3691,       412,
   38.3937,       390,
   38.4182,       416,
   38.4427,       392,
   38.4673,       398,
   38.4918,       406,
   38.5163,       391,
   38.5409,       419,
   38.5654,       440,
   38.5899,       411,
   38.6145,       394,
    38.639,       444,
   38.6636,       352,
   38.6881,       397,
   38.7126,       412,
   38.7372,       463,
   38.7617,       443,
   38.7862,       413,
   38.8108,       390,
   38.8353,       417,
   38.8598,       402,
   38.8844,       395,
   38.9089,       457,
   38.9335,       394,
    38.958,       390,
   38.9825,       375,
   39.0071,       404,
   39.0316,       444,
   39.0561,       402,
   39.0807,       398,
   39.1052,       404,
   39.1297,       374,
   39.1543,       412,
   39.1788,       400,
   39.2034,       412,
   39.2279,       417,
   39.2524,       419,
    39.277,       433,
   39.3015,       386,
    39.326,       421,
   39.3506,       396,
   39.3751,       422,
   39.3996,       383,
   39.4242,       390,
   39.4487,       397,
   39.4732,       440,
   39.4978,       442,
   39.5223,       464,
   39.5469,       452,
   39.5714,       464,
   39.5959,       465,
   39.6205,       455,
    39.645,       430,
   39.6695,       444,
   39.6941,       448,
   39.7186,       426,
   39.7431,       435,
   39.7677,       465,
   39.7922,       437,
   39.8168,       423,
   39.8413,       446,
   39.8658,       470,
   39.8904,       439,
   39.9149,       471,
   39.9394,       446,
    39.964,       439,
   39.9885,       449,
