;RAW4.00
[RawHeader]
Date=01/17/2022
EstimatedTotalTime=633.618
FurtherDQLReading=0
HardwareIndicator=65519
MeasuredTotalTime=633.618
MeasurementFlag=1
NumberOfMeasuredRanges=1
NumberOfRanges=1
Time=10:56:42

[VarInfo]
Type=USER
Flags=0
Value=Lab Manager

[VarInfo]
Type=SAMPLEID
Flags=0
Value=

[VarInfo]
Type=COMMENT
Flags=0
Value=

[VarInfo]
Type=UTF
Flags=0
Value=

[VarInfo]
Type=CREATOR
Flags=0
Value=BrmlToV4Converter

[VarInfo]
Type=CREATOR_VERSION
Flags=0
Value=7.3.1.0

[HardwareConfiguration]
AbsorptionFactor=9999
ActivateAbsorber=0
Alpha1=0.7093
Alpha2=0.71359
AlphaAverage=0.71073
AlphaRatio=0.5
Analyzer=0
Anode=Mo
AntiScatteringSlit=18
BeamOpticsFlags=0
Beta=0.63229
BetaRelativeIntensity=0
DeactivateAbsorber=0
DetectorSlit=9999
DivergenceSlit=0.2
GoniometerControl=0
GoniometerDiameter=560
GoniometerModel=512
GoniometerStage=7
Monochromator=0
NearSampleSlit=9999
PrimarySollerSlit=2.5
SampleChanger=0
SecondSollerSlit=9999
SynchronousAxis=0
ThinFilmAttachment=9999
WaveUnit=A

[RangeHeader]
ActuallyUsedLambda=0.71073
AdditionalDetectorMask=257
DataRecordLength=4
DelayTime=0
DisplayPlaneNumber=0
EstimatedScanTime=634
ExtraParametersMask=0
GeneratorCurrent=40
GeneratorVoltage=50
Increment=0.0245361
Increment3=0
NumberOfCompletedData=1427
NumberOfCounts=1
NumberOfDetectors=0
NumberOfDrives=2
NumberOfEncoderDrives=0
NumberOfMeasuredData=1427
NumberOfVaryingParameters=0
RangeStartTime=0
RotationSpeed=60
ScanMode=1
ScanType=Locked Coupled
SimulatedMeasConditions=0
SlitChangerIn=0
SmootingWidth=0
Start=5
Steps=1427
SynchronousRotation=0
Time=76.8

[VarInfo]
Type=PSD_DISCRIM
Flags=0
Value=0.488;0.518

[PSD]
ActualTwoTheta=9999
FirstUsedChannel=0
FixedPSD=0
PSDOpening=2.94433
PSDType=5

[Drive]
DriveFlags=1
DriveName=2Theta
DriveNumber=2
DriveOffset=0
OffsetIndex=0
OscillationAmplitude=0
OscillationSpeed=0
StartPosition=5

[Drive]
DriveFlags=1
DriveName=Theta
DriveNumber=1
DriveOffset=0
OffsetIndex=0
OscillationAmplitude=0
OscillationSpeed=0
StartPosition=2.5

[Data]
     Angle,       PSD,
         5,       130,
   5.02454,       221,
   5.04907,       116,
   5.07361,       225,
   5.09814,       181,
   5.12268,       153,
   5.14722,       204,
   5.17175,       118,
   5.19629,       225,
   5.22083,       183,
   5.24536,       175,
    5.2699,       235,
   5.29443,       146,
   5.31897,       253,
   5.34351,       177,
   5.36804,       180,
   5.39258,       237,
   5.41711,       134,
   5.44165,       241,
   5.46619,       197,
   5.49072,       201,
   5.51526,       278,
   5.53979,       152,
   5.56433,       253,
   5.58887,       181,
    5.6134,       179,
   5.63794,       241,
   5.66248,       152,
   5.68701,       250,
   5.71155,       180,
   5.73608,       160,
   5.76062,       234,
   5.78516,       149,
   5.80969,       272,
   5.83423,       185,
   5.85876,       170,
    5.8833,       250,
   5.90784,       126,
   5.93237,       264,
   5.95691,       151,
   5.98144,       180,
   6.00598,       246,
   6.03052,        98,
   6.05505,       244,
   6.07959,       172,
   6.10413,       173,
   6.12866,       213,
    6.1532,       124,
   6.17773,       225,
   6.20227,       178,
   6.22681,       187,
   6.25134,       212,
   6.27588,       107,
   6.30041,       209,
   6.32495,       168,
   6.34949,       156,
   6.37402,       204,
   6.39856,       131,
    6.4231,       210,
   6.44763,       138,
   6.47217,       131,
    6.4967,       203,
   6.52124,       103,
   6.54578,       203,
   6.57031,       135,
   6.59485,       159,
   6.61938,       204,
   6.64392,        97,
   6.66846,       201,
   6.69299,       156,
   6.71753,       157,
   6.74206,       226,
    6.7666,       121,
   6.79114,       183,
   6.81567,       144,
   6.84021,       168,
   6.86475,       173,
   6.88928,       110,
   6.91382,       176,
   6.93835,       157,
   6.96289,       145,
   6.98743,       196,
   7.01196,       112,
    7.0365,       202,
   7.06103,       147,
   7.08557,       140,
   7.11011,       185,
   7.13464,       119,
   7.15918,       188,
   7.18371,       160,
   7.20825,       144,
   7.23279,       231,
   7.25732,       114,
   7.28186,       196,
    7.3064,       129,
   7.33093,       138,
   7.35547,       191,
      7.38,       101,
   7.40454,       183,
   7.42908,       142,
   7.45361,       157,
   7.47815,       200,
   7.50268,       110,
   7.52722,       183,
   7.55176,       146,
   7.57629,       139,
   7.60083,       187,
   7.62536,       114,
    7.6499,       173,
   7.67444,       153,
   7.69897,       139,
   7.72351,       184,
   7.74805,       114,
   7.77258,       188,
   7.79712,       157,
   7.82165,       117,
   7.84619,       198,
   7.87073,       118,
   7.89526,       178,
    7.9198,       161,
   7.94433,       137,
   7.96887,       195,
   7.99341,       136,
   8.01794,       213,
   8.04248,       179,
   8.06702,       125,
   8.09155,       202,
   8.11609,       107,
   8.14062,       186,
   8.16516,       174,
    8.1897,       163,
   8.21423,       214,
   8.23877,       135,
    8.2633,       211,
   8.28784,       176,
   8.31238,       157,
   8.33691,       219,
   8.36145,       134,
   8.38598,       202,
   8.41052,       185,
   8.43506,       190,
   8.45959,       236,
   8.48413,       139,
   8.50867,       227,
    8.5332,       162,
   8.55774,       184,
   8.58227,       221,
   8.60681,       137,
   8.63135,       237,
   8.65588,       191,
   8.68042,       188,
   8.70495,       243,
   8.72949,       164,
   8.75403,       235,
   8.77856,       211,
    8.8031,       198,
   8.82763,       262,
   8.85217,       143,
   8.87671,       262,
   8.90124,       200,
   8.92578,       201,
   8.95032,       272,
   8.97485,       172,
   8.99939,       240,
   9.02392,       201,
   9.04846,       207,
     9.073,       278,
   9.09753,       175,
   9.12207,       277,
    9.1466,       221,
   9.17114,       247,
   9.19568,       275,
   9.22021,       205,
   9.24475,       314,
   9.26929,       259,
   9.29382,       224,
   9.31836,       335,
   9.34289,       235,
   9.36743,       347,
   9.39197,       295,
    9.4165,       287,
   9.44104,       355,
   9.46557,       285,
   9.49011,       368,
   9.51465,       334,
   9.53918,       340,
   9.56372,       389,
   9.58825,       344,
   9.61279,       506,
   9.63733,       497,
   9.66186,       522,
    9.6864,       615,
   9.71094,       530,
   9.73547,       597,
   9.76001,       557,
   9.78454,       533,
   9.80908,       567,
   9.83362,       445,
   9.85815,       518,
   9.88269,       539,
   9.90722,       495,
   9.93176,       575,
    9.9563,       565,
   9.98083,       627,
   10.0054,       611,
   10.0299,       598,
   10.0544,       692,
    10.079,       626,
   10.1035,       668,
    10.128,       662,
   10.1526,       623,
   10.1771,       705,
   10.2017,       682,
   10.2262,       747,
   10.2507,       715,
   10.2753,       745,
   10.2998,       734,
   10.3243,       770,
   10.3489,       806,
   10.3734,       697,
   10.3979,       817,
   10.4225,       856,
    10.447,       811,
   10.4716,       789,
   10.4961,       805,
   10.5206,       881,
   10.5452,       916,
   10.5697,       861,
   10.5942,       949,
   10.6188,       982,
   10.6433,      1010,
   10.6678,       994,
   10.6924,       952,
   10.7169,      1034,
   10.7415,       931,
    10.766,       953,
   10.7905,      1009,
   10.8151,       961,
   10.8396,       973,
   10.8641,      1041,
   10.8887,      1003,
   10.9132,      1103,
   10.9377,      1063,
   10.9623,      1045,
   10.9868,      1072,
   11.0113,      1050,
   11.0359,      1085,
   11.0604,      1097,
    11.085,      1118,
   11.1095,      1156,
    11.134,      1188,
   11.1586,      1169,
   11.1831,      1176,
   11.2076,      1168,
   11.2322,      1170,
   11.2567,      1235,
   11.2812,      1305,
   11.3058,      1329,
   11.3303,      1415,
   11.3549,      1589,
   11.3794,      1698,
   11.4039,      1970,
   11.4285,      2055,
    11.453,      2199,
   11.4775,      2214,
   11.5021,      2093,
   11.5266,      1943,
   11.5511,      1694,
   11.5757,      1568,
   11.6002,      1491,
   11.6248,      1341,
   11.6493,      1270,
   11.6738,      1238,
   11.6984,      1245,
   11.7229,      1177,
   11.7474,      1201,
    11.772,      1260,
   11.7965,      1156,
    11.821,      1219,
   11.8456,      1189,
   11.8701,      1222,
   11.8946,      1255,
   11.9192,      1147,
   11.9437,      1211,
   11.9683,      1187,
   11.9928,      1200,
   12.0173,      1199,
   12.0419,      1189,
   12.0664,      1220,
   12.0909,      1264,
   12.1155,      1241,
     12.14,      1185,
   12.1645,      1212,
   12.1891,      1322,
   12.2136,      1284,
   12.2382,      1268,
   12.2627,      1409,
   12.2872,      1512,
   12.3118,      1735,
   12.3363,      1922,
   12.3608,      2196,
   12.3854,      2324,
   12.4099,      2582,
   12.4344,      2844,
    12.459,      2798,
   12.4835,      2740,
   12.5081,      2381,
   12.5326,      2194,
   12.5571,      1934,
   12.5817,      1801,
   12.6062,      1458,
   12.6307,      1467,
   12.6553,      1295,
   12.6798,      1259,
   12.7043,      1249,
   12.7289,      1199,
   12.7534,      1186,
    12.778,      1230,
   12.8025,      1124,
    12.827,      1157,
   12.8516,      1158,
   12.8761,      1110,
   12.9006,      1107,
   12.9252,      1135,
   12.9497,      1088,
   12.9742,      1118,
   12.9988,      1153,
   13.0233,      1084,
   13.0478,      1074,
   13.0724,      1098,
   13.0969,      1082,
   13.1215,      1130,
    13.146,      1137,
   13.1705,      1054,
   13.1951,      1155,
   13.2196,      1076,
   13.2441,      1078,
   13.2687,      1076,
   13.2932,      1058,
   13.3177,      1136,
   13.3423,      1141,
   13.3668,      1227,
   13.3914,      1241,
   13.4159,      1288,
   13.4404,      1377,
    13.465,      1624,
   13.4895,      1968,
    13.514,      2032,
   13.5386,      1851,
   13.5631,      1678,
   13.5876,      1605,
   13.6122,      1350,
   13.6367,      1209,
   13.6613,      1139,
   13.6858,      1067,
   13.7103,      1023,
   13.7349,      1058,
   13.7594,      1046,
   13.7839,      1013,
   13.8085,      1070,
    13.833,      1093,
   13.8575,      1010,
   13.8821,       979,
   13.9066,      1013,
   13.9311,      1011,
   13.9557,       994,
   13.9802,      1011,
   14.0048,       972,
   14.0293,       980,
   14.0538,      1019,
   14.0784,      1033,
   14.1029,       901,
   14.1274,       957,
    14.152,       983,
   14.1765,       974,
    14.201,       966,
   14.2256,       979,
   14.2501,      1010,
   14.2747,       974,
   14.2992,       912,
   14.3237,       976,
   14.3483,       994,
   14.3728,       927,
   14.3973,       919,
   14.4219,       920,
   14.4464,       945,
   14.4709,       942,
   14.4955,       965,
     14.52,       973,
   14.5446,       918,
   14.5691,       998,
   14.5936,       939,
   14.6182,       963,
   14.6427,       965,
   14.6672,       969,
   14.6918,      1012,
   14.7163,      1016,
   14.7408,      1023,
   14.7654,      1104,
   14.7899,      1074,
   14.8144,      1088,
    14.839,      1224,
   14.8635,      1319,
   14.8881,      1482,
   14.9126,      1597,
   14.9371,      1802,
   14.9617,      2000,
   14.9862,      2204,
   15.0107,      2114,
   15.0353,      2260,
   15.0598,      2136,
   15.0843,      1930,
   15.1089,      1783,
   15.1334,      1580,
    15.158,      1344,
   15.1825,      1228,
    15.207,      1210,
   15.2316,      1067,
   15.2561,      1032,
   15.2806,      1034,
   15.3052,       981,
   15.3297,       953,
   15.3542,       943,
   15.3788,       913,
   15.4033,       897,
   15.4279,       858,
   15.4524,       843,
   15.4769,       881,
   15.5015,       846,
    15.526,       827,
   15.5505,       817,
   15.5751,       860,
   15.5996,       847,
   15.6241,       778,
   15.6487,       832,
   15.6732,       771,
   15.6977,       816,
   15.7223,       777,
   15.7468,       821,
   15.7714,       752,
   15.7959,       802,
   15.8204,       788,
    15.845,       743,
   15.8695,       775,
    15.894,       793,
   15.9186,       761,
   15.9431,       760,
   15.9676,       697,
   15.9922,       762,
   16.0167,       790,
   16.0413,       745,
   16.0658,       750,
   16.0903,       749,
   16.1149,       763,
   16.1394,       731,
   16.1639,       702,
   16.1885,       694,
    16.213,       721,
   16.2375,       764,
   16.2621,       750,
   16.2866,       709,
   16.3112,       713,
   16.3357,       719,
   16.3602,       782,
   16.3848,       729,
   16.4093,       803,
   16.4338,       814,
   16.4584,       780,
   16.4829,       797,
   16.5074,       721,
    16.532,       735,
   16.5565,       763,
    16.581,       677,
   16.6056,       719,
   16.6301,       681,
   16.6547,       671,
   16.6792,       684,
   16.7037,       717,
   16.7283,       630,
   16.7528,       737,
   16.7773,       651,
   16.8019,       718,
   16.8264,       665,
   16.8509,       674,
   16.8755,       663,
      16.9,       605,
   16.9246,       648,
   16.9491,       645,
   16.9736,       671,
   16.9982,       651,
   17.0227,       643,
   17.0472,       664,
   17.0718,       676,
   17.0963,       648,
   17.1208,       663,
   17.1454,       656,
   17.1699,       645,
   17.1945,       669,
    17.219,       688,
   17.2435,       674,
   17.2681,       636,
   17.2926,       660,
   17.3171,       641,
   17.3417,       610,
   17.3662,       736,
   17.3907,       652,
   17.4153,       624,
   17.4398,       698,
   17.4643,       673,
   17.4889,       695,
   17.5134,       644,
    17.538,       682,
   17.5625,       735,
    17.587,       707,
   17.6116,       715,
   17.6361,       763,
   17.6606,       741,
   17.6852,       788,
   17.7097,       764,
   17.7342,       771,
   17.7588,       694,
   17.7833,       733,
   17.8079,       755,
   17.8324,       780,
   17.8569,       757,
   17.8815,       778,
    17.906,       831,
   17.9305,       880,
   17.9551,       931,
   17.9796,       832,
   18.0041,       795,
   18.0287,       816,
   18.0532,       740,
   18.0778,       791,
   18.1023,       737,
   18.1268,       664,
   18.1514,       680,
   18.1759,       646,
   18.2004,       663,
    18.225,       746,
   18.2495,       667,
    18.274,       670,
   18.2986,       675,
   18.3231,       659,
   18.3476,       644,
   18.3722,       662,
   18.3967,       674,
   18.4213,       662,
   18.4458,       730,
   18.4703,       714,
   18.4949,       664,
   18.5194,       676,
   18.5439,       713,
   18.5685,       674,
    18.593,       685,
   18.6175,       698,
   18.6421,       690,
   18.6666,       634,
   18.6912,       657,
   18.7157,       663,
   18.7402,       654,
   18.7648,       678,
   18.7893,       683,
   18.8138,       648,
   18.8384,       662,
   18.8629,       701,
   18.8874,       687,
    18.912,       678,
   18.9365,       646,
   18.9611,       681,
   18.9856,       698,
   19.0101,       661,
   19.0347,       675,
   19.0592,       656,
   19.0837,       725,
   19.1083,       696,
   19.1328,       672,
   19.1573,       735,
   19.1819,       675,
   19.2064,       666,
    19.231,       621,
   19.2555,       706,
     19.28,       690,
   19.3046,       768,
   19.3291,       741,
   19.3536,       765,
   19.3782,       791,
   19.4027,       803,
   19.4272,       802,
   19.4518,       745,
   19.4763,       823,
   19.5008,       779,
   19.5254,       800,
   19.5499,       827,
   19.5745,       855,
    19.599,       878,
   19.6235,       875,
   19.6481,       810,
   19.6726,       801,
   19.6971,       872,
   19.7217,       951,
   19.7462,       988,
   19.7707,      1002,
   19.7953,      1115,
   19.8198,      1238,
   19.8444,      1223,
   19.8689,      1352,
   19.8934,      1240,
    19.918,      1276,
   19.9425,      1169,
    19.967,      1207,
   19.9916,      1119,
   20.0161,      1033,
   20.0406,       902,
   20.0652,       904,
   20.0897,       826,
   20.1143,       770,
   20.1388,       754,
   20.1633,       707,
   20.1879,       714,
   20.2124,       719,
   20.2369,       698,
   20.2615,       723,
    20.286,       675,
   20.3105,       607,
   20.3351,       653,
   20.3596,       649,
   20.3841,       636,
   20.4087,       645,
   20.4332,       643,
   20.4578,       628,
   20.4823,       658,
   20.5068,       661,
   20.5314,       606,
   20.5559,       643,
   20.5804,       671,
    20.605,       610,
   20.6295,       630,
    20.654,       638,
   20.6786,       677,
   20.7031,       602,
   20.7277,       605,
   20.7522,       634,
   20.7767,       601,
   20.8013,       633,
   20.8258,       658,
   20.8503,       645,
   20.8749,       611,
   20.8994,       681,
   20.9239,       623,
   20.9485,       643,
    20.973,       623,
   20.9976,       595,
   21.0221,       613,
   21.0466,       661,
   21.0712,       629,
   21.0957,       627,
   21.1202,       637,
   21.1448,       596,
   21.1693,       640,
   21.1938,       651,
   21.2184,       639,
   21.2429,       683,
   21.2674,       677,
    21.292,       768,
   21.3165,       765,
   21.3411,       760,
   21.3656,       688,
   21.3901,       696,
   21.4147,       725,
   21.4392,       762,
   21.4637,       837,
   21.4883,       802,
   21.5128,       776,
   21.5373,       684,
   21.5619,       736,
   21.5864,       656,
    21.611,       667,
   21.6355,       674,
     21.66,       630,
   21.6846,       642,
   21.7091,       712,
   21.7336,       684,
   21.7582,       703,
   21.7827,       678,
   21.8072,       683,
   21.8318,       753,
   21.8563,       766,
   21.8809,       817,
   21.9054,       836,
   21.9299,       828,
   21.9545,       805,
    21.979,       791,
   22.0035,       833,
   22.0281,       845,
   22.0526,       865,
   22.0771,       889,
   22.1017,       864,
   22.1262,       859,
   22.1507,       809,
   22.1753,       826,
   22.1998,       856,
   22.2244,       806,
   22.2489,       813,
   22.2734,       797,
    22.298,       802,
   22.3225,       805,
    22.347,       736,
   22.3716,       813,
   22.3961,       846,
   22.4206,       839,
   22.4452,       926,
   22.4697,       922,
   22.4943,      1050,
   22.5188,      1033,
   22.5433,      1187,
   22.5679,      1173,
   22.5924,      1117,
   22.6169,      1067,
   22.6415,      1000,
    22.666,       965,
   22.6905,       917,
   22.7151,       908,
   22.7396,       812,
   22.7642,       813,
   22.7887,       740,
   22.8132,       731,
   22.8378,       695,
   22.8623,       660,
   22.8868,       664,
   22.9114,       683,
   22.9359,       641,
   22.9604,       656,
    22.985,       666,
   23.0095,       654,
    23.034,       671,
   23.0586,       626,
   23.0831,       668,
   23.1077,       656,
   23.1322,       658,
   23.1567,       694,
   23.1813,       626,
   23.2058,       622,
   23.2303,       618,
   23.2549,       614,
   23.2794,       572,
   23.3039,       579,
   23.3285,       575,
    23.353,       660,
   23.3776,       615,
   23.4021,       637,
   23.4266,       686,
   23.4512,       599,
   23.4757,       619,
   23.5002,       606,
   23.5248,       630,
   23.5493,       622,
   23.5738,       610,
   23.5984,       609,
   23.6229,       565,
   23.6475,       649,
    23.672,       572,
   23.6965,       605,
   23.7211,       627,
   23.7456,       652,
   23.7701,       610,
   23.7947,       572,
   23.8192,       646,
   23.8437,       590,
   23.8683,       589,
   23.8928,       666,
   23.9173,       625,
   23.9419,       585,
   23.9664,       598,
    23.991,       582,
   24.0155,       640,
     24.04,       655,
   24.0646,       589,
   24.0891,       586,
   24.1136,       661,
   24.1382,       590,
   24.1627,       604,
   24.1872,       597,
   24.2118,       596,
   24.2363,       608,
   24.2609,       607,
   24.2854,       630,
   24.3099,       605,
   24.3345,       697,
    24.359,       595,
   24.3835,       602,
   24.4081,       616,
   24.4326,       653,
   24.4571,       640,
   24.4817,       641,
   24.5062,       660,
   24.5308,       660,
   24.5553,       660,
   24.5798,       638,
   24.6044,       638,
   24.6289,       691,
   24.6534,       646,
    24.678,       614,
   24.7025,       668,
    24.727,       677,
   24.7516,       674,
   24.7761,       693,
   24.8006,       702,
   24.8252,       720,
   24.8497,       746,
   24.8743,       765,
   24.8988,       736,
   24.9233,       820,
   24.9479,       771,
   24.9724,       814,
   24.9969,       822,
   25.0215,       849,
    25.046,       819,
   25.0705,       837,
   25.0951,       741,
   25.1196,       752,
   25.1442,       760,
   25.1687,       699,
   25.1932,       756,
   25.2178,       726,
   25.2423,       619,
   25.2668,       682,
   25.2914,       706,
   25.3159,       685,
   25.3404,       681,
    25.365,       653,
   25.3895,       679,
   25.4141,       671,
   25.4386,       648,
   25.4631,       641,
   25.4877,       689,
   25.5122,       693,
   25.5367,       663,
   25.5613,       681,
   25.5858,       673,
   25.6103,       683,
   25.6349,       743,
   25.6594,       733,
   25.6839,       692,
   25.7085,       671,
    25.733,       632,
   25.7576,       619,
   25.7821,       631,
   25.8066,       703,
   25.8312,       672,
   25.8557,       648,
   25.8802,       667,
   25.9048,       608,
   25.9293,       669,
   25.9538,       599,
   25.9784,       648,
   26.0029,       628,
   26.0275,       654,
    26.052,       633,
   26.0765,       624,
   26.1011,       642,
   26.1256,       633,
   26.1501,       667,
   26.1747,       592,
   26.1992,       610,
   26.2237,       670,
   26.2483,       679,
   26.2728,       622,
   26.2974,       648,
   26.3219,       665,
   26.3464,       628,
    26.371,       668,
   26.3955,       617,
     26.42,       661,
   26.4446,       667,
   26.4691,       618,
   26.4936,       633,
   26.5182,       723,
   26.5427,       637,
   26.5673,       629,
   26.5918,       629,
   26.6163,       649,
   26.6409,       648,
   26.6654,       690,
   26.6899,       643,
   26.7145,       650,
    26.739,       714,
   26.7635,       700,
   26.7881,       703,
   26.8126,       694,
   26.8371,       715,
   26.8617,       688,
   26.8862,       642,
   26.9108,       690,
   26.9353,       671,
   26.9598,       730,
   26.9844,       750,
   27.0089,       719,
   27.0334,       716,
    27.058,       713,
   27.0825,       695,
    27.107,       684,
   27.1316,       708,
   27.1561,       710,
   27.1807,       705,
   27.2052,       718,
   27.2297,       630,
   27.2543,       715,
   27.2788,       699,
   27.3033,       662,
   27.3279,       657,
   27.3524,       648,
   27.3769,       640,
   27.4015,       640,
    27.426,       640,
   27.4506,       657,
   27.4751,       631,
   27.4996,       678,
   27.5242,       673,
   27.5487,       656,
   27.5732,       587,
   27.5978,       622,
   27.6223,       635,
   27.6468,       637,
   27.6714,       677,
   27.6959,       612,
   27.7204,       682,
    27.745,       669,
   27.7695,       659,
   27.7941,       706,
   27.8186,       641,
   27.8431,       708,
   27.8677,       688,
   27.8922,       694,
   27.9167,       685,
   27.9413,       673,
   27.9658,       712,
   27.9903,       626,
   28.0149,       675,
   28.0394,       657,
    28.064,       601,
   28.0885,       689,
    28.113,       639,
   28.1376,       668,
   28.1621,       661,
   28.1866,       619,
   28.2112,       624,
   28.2357,       640,
   28.2602,       626,
   28.2848,       638,
   28.3093,       637,
   28.3339,       675,
   28.3584,       653,
   28.3829,       643,
   28.4075,       686,
    28.432,       671,
   28.4565,       655,
   28.4811,       654,
   28.5056,       641,
   28.5301,       669,
   28.5547,       639,
   28.5792,       667,
   28.6037,       684,
   28.6283,       698,
   28.6528,       663,
   28.6774,       631,
   28.7019,       619,
   28.7264,       653,
    28.751,       661,
   28.7755,       624,
      28.8,       693,
   28.8246,       631,
   28.8491,       643,
   28.8736,       721,
   28.8982,       671,
   28.9227,       654,
   28.9473,       641,
   28.9718,       666,
   28.9963,       659,
   29.0209,       688,
   29.0454,       683,
   29.0699,       680,
   29.0945,       679,
    29.119,       650,
   29.1435,       638,
   29.1681,       694,
   29.1926,       665,
   29.2172,       677,
   29.2417,       652,
   29.2662,       623,
   29.2908,       629,
   29.3153,       632,
   29.3398,       716,
   29.3644,       634,
   29.3889,       630,
   29.4134,       605,
    29.438,       628,
   29.4625,       633,
    29.487,       631,
   29.5116,       649,
   29.5361,       632,
   29.5607,       630,
   29.5852,       636,
   29.6097,       626,
   29.6343,       606,
   29.6588,       591,
   29.6833,       627,
   29.7079,       602,
   29.7324,       602,
   29.7569,       631,
   29.7815,       597,
    29.806,       650,
   29.8306,       626,
   29.8551,       604,
   29.8796,       626,
   29.9042,       609,
   29.9287,       648,
   29.9532,       618,
   29.9778,       652,
   30.0023,       608,
   30.0268,       619,
   30.0514,       685,
   30.0759,       602,
   30.1005,       675,
    30.125,       676,
   30.1495,       642,
   30.1741,       637,
   30.1986,       624,
   30.2231,       696,
   30.2477,       598,
   30.2722,       678,
   30.2967,       623,
   30.3213,       618,
   30.3458,       616,
   30.3703,       655,
   30.3949,       654,
   30.4194,       650,
    30.444,       606,
   30.4685,       576,
    30.493,       631,
   30.5176,       645,
   30.5421,       660,
   30.5666,       623,
   30.5912,       618,
   30.6157,       618,
   30.6402,       669,
   30.6648,       624,
   30.6893,       698,
   30.7139,       578,
   30.7384,       643,
   30.7629,       625,
   30.7875,       640,
    30.812,       608,
   30.8365,       620,
   30.8611,       661,
   30.8856,       620,
   30.9101,       657,
   30.9347,       610,
   30.9592,       640,
   30.9838,       593,
   31.0083,       609,
   31.0328,       645,
   31.0574,       621,
   31.0819,       596,
   31.1064,       614,
    31.131,       585,
   31.1555,       592,
     31.18,       624,
   31.2046,       599,
   31.2291,       592,
   31.2536,       630,
   31.2782,       624,
   31.3027,       641,
   31.3273,       672,
   31.3518,       618,
   31.3763,       632,
   31.4009,       622,
   31.4254,       646,
   31.4499,       620,
   31.4745,       639,
    31.499,       664,
   31.5235,       632,
   31.5481,       625,
   31.5726,       602,
   31.5972,       612,
   31.6217,       715,
   31.6462,       644,
   31.6708,       582,
   31.6953,       630,
   31.7198,       647,
   31.7444,       670,
   31.7689,       628,
   31.7934,       621,
    31.818,       603,
   31.8425,       591,
   31.8671,       636,
   31.8916,       639,
   31.9161,       654,
   31.9407,       685,
   31.9652,       672,
   31.9897,       666,
   32.0143,       693,
   32.0388,       687,
   32.0633,       692,
   32.0879,       665,
   32.1124,       640,
   32.1369,       639,
   32.1615,       655,
    32.186,       616,
   32.2106,       664,
   32.2351,       595,
   32.2596,       620,
   32.2842,       618,
   32.3087,       612,
   32.3332,       594,
   32.3578,       553,
   32.3823,       563,
   32.4068,       590,
   32.4314,       606,
   32.4559,       580,
   32.4805,       579,
    32.505,       612,
   32.5295,       554,
   32.5541,       584,
   32.5786,       578,
   32.6031,       544,
   32.6277,       595,
   32.6522,       554,
   32.6767,       557,
   32.7013,       584,
   32.7258,       577,
   32.7504,       547,
   32.7749,       550,
   32.7994,       557,
    32.824,       545,
   32.8485,       553,
    32.873,       560,
   32.8976,       554,
   32.9221,       547,
   32.9466,       546,
   32.9712,       549,
   32.9957,       552,
   33.0203,       521,
   33.0448,       561,
   33.0693,       553,
   33.0939,       577,
   33.1184,       521,
   33.1429,       563,
   33.1675,       570,
    33.192,       641,
   33.2165,       539,
   33.2411,       563,
   33.2656,       578,
   33.2901,       562,
   33.3147,       561,
   33.3392,       598,
   33.3638,       588,
   33.3883,       594,
   33.4128,       550,
   33.4374,       593,
   33.4619,       555,
   33.4864,       591,
    33.511,       585,
   33.5355,       550,
     33.56,       548,
   33.5846,       569,
   33.6091,       550,
   33.6337,       552,
   33.6582,       540,
   33.6827,       568,
   33.7073,       516,
   33.7318,       519,
   33.7563,       526,
   33.7809,       627,
   33.8054,       546,
   33.8299,       546,
   33.8545,       537,
    33.879,       549,
   33.9036,       530,
   33.9281,       544,
   33.9526,       555,
   33.9772,       564,
   34.0017,       528,
   34.0262,       562,
   34.0508,       595,
   34.0753,       529,
   34.0998,       522,
   34.1244,       535,
   34.1489,       491,
   34.1734,       479,
    34.198,       530,
   34.2225,       534,
   34.2471,       517,
   34.2716,       557,
   34.2961,       547,
   34.3207,       578,
   34.3452,       530,
   34.3697,       554,
   34.3943,       504,
   34.4188,       541,
   34.4433,       528,
   34.4679,       531,
   34.4924,       476,
    34.517,       513,
   34.5415,       469,
    34.566,       543,
   34.5906,       506,
   34.6151,       530,
   34.6396,       561,
   34.6642,       532,
   34.6887,       541,
   34.7132,       515,
   34.7378,       547,
   34.7623,       520,
   34.7869,       524,
   34.8114,       523,
   34.8359,       556,
   34.8605,       559,
    34.885,       570,
   34.9095,       518,
   34.9341,       561,
   34.9586,       544,
   34.9831,       544,
   35.0077,       506,
   35.0322,       542,
   35.0567,       528,
   35.0813,       555,
   35.1058,       559,
   35.1304,       552,
   35.1549,       525,
   35.1794,       538,
    35.204,       535,
   35.2285,       535,
    35.253,       497,
   35.2776,       507,
   35.3021,       505,
   35.3266,       506,
   35.3512,       526,
   35.3757,       526,
   35.4003,       522,
   35.4248,       471,
   35.4493,       478,
   35.4739,       533,
   35.4984,       475,
   35.5229,       511,
   35.5475,       551,
    35.572,       553,
   35.5965,       523,
   35.6211,       488,
   35.6456,       528,
   35.6702,       525,
   35.6947,       560,
   35.7192,       526,
   35.7438,       554,
   35.7683,       492,
   35.7928,       553,
   35.8174,       559,
   35.8419,       515,
   35.8664,       533,
    35.891,       539,
   35.9155,       533,
     35.94,       569,
   35.9646,       464,
   35.9891,       499,
   36.0137,       540,
   36.0382,       518,
   36.0627,       547,
   36.0873,       507,
   36.1118,       518,
   36.1363,       563,
   36.1609,       526,
   36.1854,       512,
   36.2099,       536,
   36.2345,       503,
    36.259,       508,
   36.2836,       488,
   36.3081,       489,
   36.3326,       537,
   36.3572,       547,
   36.3817,       489,
   36.4062,       489,
   36.4308,       531,
   36.4553,       520,
   36.4798,       452,
   36.5044,       473,
   36.5289,       457,
   36.5535,       505,
    36.578,       456,
   36.6025,       427,
   36.6271,       491,
   36.6516,       475,
   36.6761,       494,
   36.7007,       505,
   36.7252,       497,
   36.7497,       480,
   36.7743,       443,
   36.7988,       453,
   36.8233,       458,
   36.8479,       435,
   36.8724,       478,
    36.897,       443,
   36.9215,       416,
    36.946,       429,
   36.9706,       454,
   36.9951,       464,
   37.0196,       397,
   37.0442,       415,
   37.0687,       441,
   37.0932,       449,
   37.1178,       470,
   37.1423,       433,
   37.1669,       453,
   37.1914,       495,
   37.2159,       419,
   37.2405,       473,
    37.265,       453,
   37.2895,       412,
   37.3141,       460,
   37.3386,       459,
   37.3631,       440,
   37.3877,       491,
   37.4122,       446,
   37.4368,       427,
   37.4613,       443,
   37.4858,       456,
   37.5104,       454,
   37.5349,       426,
   37.5594,       460,
    37.584,       465,
   37.6085,       454,
    37.633,       451,
   37.6576,       468,
   37.6821,       474,
   37.7066,       445,
   37.7312,       434,
   37.7557,       457,
   37.7803,       426,
   37.8048,       423,
   37.8293,       407,
   37.8539,       442,
   37.8784,       446,
   37.9029,       463,
   37.9275,       414,
    37.952,       410,
   37.9765,       427,
   38.0011,       438,
   38.0256,       340,
   38.0502,       387,
   38.0747,       433,
   38.0992,       419,
   38.1238,       426,
   38.1483,       390,
   38.1728,       436,
   38.1974,       423,
   38.2219,       429,
   38.2464,       424,
    38.271,       403,
   38.2955,       380,
   38.3201,       400,
   38.3446,       398,
   38.3691,       411,
   38.3937,       439,
   38.4182,       402,
   38.4427,       408,
   38.4673,       406,
   38.4918,       401,
   38.5163,       408,
   38.5409,       405,
   38.5654,       406,
   38.5899,       432,
   38.6145,       350,
    38.639,       397,
   38.6636,       424,
   38.6881,       395,
   38.7126,       392,
   38.7372,       407,
   38.7617,       417,
   38.7862,       419,
   38.8108,       375,
   38.8353,       407,
   38.8598,       390,
   38.8844,       368,
   38.9089,       431,
   38.9335,       384,
    38.958,       407,
   38.9825,       408,
   39.0071,       410,
   39.0316,       399,
   39.0561,       412,
   39.0807,       390,
   39.1052,       421,
   39.1297,       424,
   39.1543,       405,
   39.1788,       402,
   39.2034,       407,
   39.2279,       431,
   39.2524,       441,
    39.277,       424,
   39.3015,       446,
    39.326,       389,
   39.3506,       418,
   39.3751,       395,
   39.3996,       413,
   39.4242,       409,
   39.4487,       411,
   39.4732,       436,
   39.4978,       458,
   39.5223,       454,
   39.5469,       453,
   39.5714,       432,
   39.5959,       485,
   39.6205,       443,
    39.645,       452,
   39.6695,       436,
   39.6941,       471,
   39.7186,       412,
   39.7431,       451,
   39.7677,       482,
   39.7922,       445,
   39.8168,       464,
   39.8413,       496,
   39.8658,       428,
   39.8904,       429,
   39.9149,       447,
   39.9394,       436,
    39.964,       443,
   39.9885,       447,
