;RAW4.00
[RawHeader]
Date=01/17/2022
EstimatedTotalTime=-6.3778e+010
FurtherDQLReading=0
HardwareIndicator=65519
MeasuredTotalTime=-6.3778e+010
MeasurementFlag=1
NumberOfMeasuredRanges=0
NumberOfRanges=1
Time=11:19:44

[VarInfo]
Type=USER
Flags=0
Value=Lab Manager

[VarInfo]
Type=SAMPLEID
Flags=0
Value=

[VarInfo]
Type=COMMENT
Flags=0
Value=

[VarInfo]
Type=UTF
Flags=0
Value=

[VarInfo]
Type=CREATOR
Flags=0
Value=BrmlToV4Converter

[VarInfo]
Type=CREATOR_VERSION
Flags=0
Value=7.3.1.0

[HardwareConfiguration]
AbsorptionFactor=9999
ActivateAbsorber=0
Alpha1=0.7093
Alpha2=0.71359
AlphaAverage=0.71073
AlphaRatio=0.5
Analyzer=0
Anode=Mo
AntiScatteringSlit=18
BeamOpticsFlags=0
Beta=0.63229
BetaRelativeIntensity=0
DeactivateAbsorber=0
DetectorSlit=9999
DivergenceSlit=0.2
GoniometerControl=0
GoniometerDiameter=560
GoniometerModel=512
GoniometerStage=7
Monochromator=0
NearSampleSlit=9999
PrimarySollerSlit=2.5
SampleChanger=0
SecondSollerSlit=9999
SynchronousAxis=0
ThinFilmAttachment=9999
WaveUnit=A

[RangeHeader]
ActuallyUsedLambda=0.71073
AdditionalDetectorMask=1
DataRecordLength=0
DelayTime=0
DisplayPlaneNumber=0
EstimatedScanTime=-2147483648
ExtraParametersMask=0
GeneratorCurrent=40
GeneratorVoltage=50
Increment=0.0245361
Increment3=0
NumberOfCompletedData=0
NumberOfCounts=0
NumberOfDetectors=0
NumberOfDrives=2
NumberOfEncoderDrives=0
NumberOfMeasuredData=0
NumberOfVaryingParameters=0
RangeStartTime=-1
RotationSpeed=60
ScanMode=1
ScanType=Locked Coupled
SimulatedMeasConditions=0
SlitChangerIn=0
SmootingWidth=0
Start=5
Steps=1427
SynchronousRotation=0
Time=0.4

[VarInfo]
Type=PSD_DISCRIM
Flags=0
Value=0.488;0.518

[PSD]
ActualTwoTheta=9999
FirstUsedChannel=0
FixedPSD=0
PSDOpening=2.94433
PSDType=5

[Drive]
DriveFlags=1
DriveName=2Theta
DriveNumber=2
DriveOffset=0
OffsetIndex=0
OscillationAmplitude=0
OscillationSpeed=0
StartPosition=5

[Drive]
DriveFlags=1
DriveName=Theta
DriveNumber=1
DriveOffset=0
OffsetIndex=0
OscillationAmplitude=0
OscillationSpeed=0
StartPosition=2.5

[Data]
     Angle,	PSD,
5,		185,
5.024536121,	130,
5.049072242,	148,
5.073608363,	188,
5.098144483,	99,
5.122680604,	213,
5.147216725,	140,
5.171752846,	168,
5.196288967,	224,
5.220825088,	111,
5.245361209,	193,
5.269897329,	170,
5.29443345,	150,
5.318969571,	219,
5.343505692,	125,
5.368041813,	226,
5.392577934,	169,
5.417114055,	173,
5.441650175,	255,
5.466186296,	117,
5.490722417,	210,
5.515258538,	172,
5.539794659,	199,
5.56433078,	229,
5.588866901,	119,
5.613403021,	255,
5.637939142,	164,
5.662475263,	177,
5.687011384,	232,
5.711547505,	117,
5.736083626,	233,
5.760619747,	175,
5.785155867,	175,
5.809691988,	221,
5.834228109,	126,
5.85876423,	247,
5.883300351,	165,
5.907836472,	177,
5.932372593,	241,
5.956908713,	135,
5.981444834,	264,
6.005980955,	175,
6.030517076,	172,
6.055053197,	251,
6.079589318,	141,
6.104125439,	211,
6.128661559,	136,
6.15319768,	176,
6.177733801,	208,
6.202269922,	112,
6.226806043,	189,
6.251342164,	163,
6.275878285,	181,
6.300414405,	235,
6.324950526,	114,
6.349486647,	226,
6.374022768,	140,
6.398558889,	140,
6.42309501,	200,
6.447631131,	129,
6.472167251,	202,
6.496703372,	148,
6.521239493,	148,
6.545775614,	200,
6.570311735,	107,
6.594847856,	181,
6.619383976,	155,
6.643920097,	138,
6.668456218,	189,
6.692992339,	97,
6.71752846,	221,
6.742064581,	123,
6.766600702,	167,
6.791136822,	201,
6.815672943,	117,
6.840209064,	193,
6.864745185,	174,
6.889281306,	167,
6.913817427,	184,
6.938353548,	110,
6.962889668,	206,
6.987425789,	145,
7.01196191,	134,
7.036498031,	197,
7.061034152,	111,
7.085570273,	180,
7.110106394,	132,
7.134642514,	141,
7.159178635,	194,
7.183714756,	96,
7.208250877,	179,
7.232786998,	134,
7.257323119,	152,
7.28185924,	204,
7.30639536,	116,
7.330931481,	181,
7.355467602,	141,
7.380003723,	156,
7.404539844,	208,
7.429075965,	106,
7.453612086,	208,
7.478148206,	127,
7.502684327,	141,
7.527220448,	189,
7.551756569,	118,
7.57629269,	198,
7.600828811,	151,
7.625364932,	148,
7.649901052,	190,
7.674437173,	129,
7.698973294,	202,
7.723509415,	150,
7.748045536,	157,
7.772581657,	206,
7.797117778,	113,
7.821653898,	241,
7.846190019,	165,
7.87072614,	169,
7.895262261,	188,
7.919798382,	110,
7.944334503,	195,
7.968870624,	169,
7.993406744,	167,
8.017942865,	207,
8.042478986,	115,
8.067015107,	196,
8.091551228,	161,
8.116087349,	149,
8.14062347,	234,
8.16515959,	133,
8.189695711,	219,
8.214231832,	181,
8.238767953,	147,
8.263304074,	224,
8.287840195,	134,
8.312376316,	218,
8.336912436,	200,
8.361448557,	167,
8.385984678,	216,
8.410520799,	153,
8.43505692,	248,
8.459593041,	180,
8.484129162,	175,
8.508665282,	245,
8.533201403,	138,
8.557737524,	229,
8.582273645,	203,
8.606809766,	185,
8.631345887,	271,
8.655882008,	176,
8.680418128,	256,
8.704954249,	202,
8.72949037,	202,
8.754026491,	271,
8.778562612,	161,
8.803098733,	263,
8.827634854,	198,
8.852170974,	198,
8.876707095,	286,
8.901243216,	175,
8.925779337,	263,
8.950315458,	247,
8.974851579,	211,
8.9993877,	280,
9.02392382,	199,
9.048459941,	326,
9.072996062,	242,
9.097532183,	254,
9.122068304,	346,
9.146604425,	218,
9.171140546,	336,
9.195676666,	311,
9.220212787,	330,
9.244748908,	374,
9.269285029,	277,
9.29382115,	399,
9.318357271,	364,
9.342893392,	339,
9.367429512,	425,
9.391965633,	389,
9.416501754,	461,
9.441037875,	388,
9.465573996,	396,
9.490110117,	473,
9.514646238,	411,
9.539182358,	463,
9.563718479,	521,
9.5882546,	500,
9.612790721,	598,
9.637326842,	525,
9.661862963,	687,
9.686399083,	684,
9.710935204,	736,
9.735471325,	755,
9.760007446,	672,
9.784543567,	713,
9.809079688,	645,
9.833615809,	661,
9.858151929,	684,
9.88268805,	661,
9.907224171,	700,
9.931760292,	667,
9.956296413,	727,
9.980832534,	707,
10.00536865,	673,
10.02990478,	710,
10.0544409,	726,
10.07897702,	696,
10.10351314,	797,
10.12804926,	784,
10.15258538,	810,
10.1771215,	788,
10.20165762,	736,
10.22619374,	851,
10.25072986,	831,
10.27526598,	865,
10.2998021,	825,
10.32433823,	836,
10.34887435,	870,
10.37341047,	896,
10.39794659,	889,
10.42248271,	953,
10.44701883,	921,
10.47155495,	950,
10.49609107,	929,
10.52062719,	963,
10.54516331,	994,
10.56969943,	992,
10.59423556,	1029,
10.61877168,	1024,
10.6433078,	1071,
10.66784392,	1054,
10.69238004,	969,
10.71691616,	1148,
10.74145228,	1041,
10.7659884,	1062,
10.79052452,	1054,
10.81506064,	1060,
10.83959676,	1096,
10.86413288,	1064,
10.88866901,	1061,
10.91320513,	1095,
10.93774125,	1101,
10.96227737,	1174,
10.98681349,	1121,
11.01134961,	1136,
11.03588573,	1146,
11.06042185,	1100,
11.08495797,	1190,
11.10949409,	1138,
11.13403021,	1204,
11.15856633,	1160,
11.18310246,	1241,
11.20763858,	1211,
11.2321747,	1200,
11.25671082,	1220,
11.28124694,	1256,
11.30578306,	1318,
11.33031918,	1313,
11.3548553,	1392,
11.37939142,	1534,
11.40392754,	1631,
11.42846366,	1779,
11.45299979,	1969,
11.47753591,	2106,
11.50207203,	2148,
11.52660815,	1985,
11.55114427,	1844,
11.57568039,	1760,
11.60021651,	1627,
11.62475263,	1472,
11.64928875,	1354,
11.67382487,	1291,
11.69836099,	1328,
11.72289711,	1270,
11.74743324,	1293,
11.77196936,	1187,
11.79650548,	1233,
11.8210416,	1229,
11.84557772,	1259,
11.87011384,	1190,
11.89464996,	1303,
11.91918608,	1165,
11.9437222,	1212,
11.96825832,	1221,
11.99279444,	1269,
12.01733056,	1263,
12.04186669,	1252,
12.06640281,	1250,
12.09093893,	1262,
12.11547505,	1200,
12.14001117,	1182,
12.16454729,	1259,
12.18908341,	1261,
12.21361953,	1314,
12.23815565,	1327,
12.26269177,	1347,
12.28722789,	1400,
12.31176402,	1436,
12.33630014,	1579,
12.36083626,	1774,
12.38537238,	1833,
12.4099085,	2189,
12.43444462,	2361,
12.45898074,	2621,
12.48351686,	2743,
12.50805298,	2482,
12.5325891,	2326,
12.55712522,	1966,
12.58166134,	1862,
12.60619747,	1566,
12.63073359,	1480,
12.65526971,	1407,
12.67980583,	1261,
12.70434195,	1281,
12.72887807,	1190,
12.75341419,	1191,
12.77795031,	1205,
12.80248643,	1164,
12.82702255,	1172,
12.85155867,	1154,
12.87609479,	1140,
12.90063092,	1187,
12.92516704,	1065,
12.94970316,	1126,
12.97423928,	1164,
12.9987754,	1127,
13.02331152,	1125,
13.04784764,	1101,
13.07238376,	1087,
13.09691988,	1083,
13.121456,	1177,
13.14599212,	1143,
13.17052825,	1103,
13.19506437,	1109,
13.21960049,	1157,
13.24413661,	1121,
13.26867273,	1081,
13.29320885,	1021,
13.31774497,	1071,
13.34228109,	1133,
13.36681721,	1182,
13.39135333,	1173,
13.41588945,	1233,
13.44042557,	1266,
13.4649617,	1436,
13.48949782,	1788,
13.51403394,	2107,
13.53857006,	2068,
13.56310618,	1715,
13.5876423,	1635,
13.61217842,	1683,
13.63671454,	1431,
13.66125066,	1249,
13.68578678,	1161,
13.7103229,	1059,
13.73485902,	1060,
13.75939515,	1082,
13.78393127,	1058,
13.80846739,	1009,
13.83300351,	1006,
13.85753963,	1101,
13.88207575,	1049,
13.90661187,	1062,
13.93114799,	1036,
13.95568411,	1024,
13.98022023,	1110,
14.00475635,	996,
14.02929248,	1064,
14.0538286,	996,
14.07836472,	1053,
14.10290084,	967,
14.12743696,	973,
14.15197308,	994,
14.1765092,	952,
14.20104532,	1019,
14.22558144,	993,
14.25011756,	954,
14.27465368,	1020,
14.2991898,	1014,
14.32372593,	969,
14.34826205,	1023,
14.37279817,	884,
14.39733429,	919,
14.42187041,	943,
14.44640653,	941,
14.47094265,	1022,
14.49547877,	948,
14.52001489,	967,
14.54455101,	927,
14.56908713,	976,
14.59362325,	955,
14.61815938,	971,
14.6426955,	976,
14.66723162,	947,
14.69176774,	1036,
14.71630386,	1022,
14.74083998,	980,
14.7653761,	1010,
14.78991222,	1066,
14.81444834,	1049,
14.83898446,	1122,
14.86352058,	1085,
14.8880567,	1259,
14.91259283,	1336,
14.93712895,	1479,
14.96166507,	1673,
14.98620119,	1917,
15.01073731,	2006,
15.03527343,	2032,
15.05980955,	1991,
15.08434567,	1948,
15.10888179,	1792,
15.13341791,	1583,
15.15795403,	1460,
15.18249016,	1324,
15.20702628,	1126,
15.2315624,	1115,
15.25609852,	1076,
15.28063464,	1006,
15.30517076,	926,
15.32970688,	914,
15.354243,	937,
15.37877912,	904,
15.40331524,	890,
15.42785136,	924,
15.45238748,	890,
15.47692361,	846,
15.50145973,	870,
15.52599585,	879,
15.55053197,	861,
15.57506809,	823,
15.59960421,	791,
15.62414033,	790,
15.64867645,	808,
15.67321257,	794,
15.69774869,	821,
15.72228481,	768,
15.74682093,	764,
15.77135706,	794,
15.79589318,	722,
15.8204293,	800,
15.84496542,	760,
15.86950154,	810,
15.89403766,	816,
15.91857378,	777,
15.9431099,	802,
15.96764602,	744,
15.99218214,	699,
16.01671826,	768,
16.04125439,	795,
16.06579051,	767,
16.09032663,	750,
16.11486275,	812,
16.13939887,	728,
16.16393499,	698,
16.18847111,	719,
16.21300723,	764,
16.23754335,	741,
16.26207947,	689,
16.28661559,	738,
16.31115171,	722,
16.33568784,	730,
16.36022396,	733,
16.38476008,	786,
16.4092962,	802,
16.43383232,	843,
16.45836844,	851,
16.48290456,	783,
16.50744068,	728,
16.5319768,	738,
16.55651292,	755,
16.58104904,	769,
16.60558516,	761,
16.63012129,	734,
16.65465741,	701,
16.67919353,	675,
16.70372965,	712,
16.72826577,	664,
16.75280189,	710,
16.77733801,	675,
16.80187413,	713,
16.82641025,	649,
16.85094637,	679,
16.87548249,	706,
16.90001862,	649,
16.92455474,	666,
16.94909086,	654,
16.97362698,	621,
16.9981631,	648,
17.02269922,	655,
17.04723534,	678,
17.07177146,	679,
17.09630758,	676,
17.1208437,	641,
17.14537982,	625,
17.16991594,	652,
17.19445207,	668,
17.21898819,	675,
17.24352431,	614,
17.26806043,	660,
17.29259655,	642,
17.31713267,	617,
17.34166879,	667,
17.36620491,	649,
17.39074103,	617,
17.41527715,	699,
17.43981327,	684,
17.46434939,	659,
17.48888552,	680,
17.51342164,	712,
17.53795776,	629,
17.56249388,	685,
17.58703,	681,
17.61156612,	721,
17.63610224,	710,
17.66063836,	686,
17.68517448,	695,
17.7097106,	707,
17.73424672,	772,
17.75878285,	727,
17.78331897,	765,
17.80785509,	749,
17.83239121,	768,
17.85692733,	739,
17.88146345,	730,
17.90599957,	768,
17.93053569,	844,
17.95507181,	860,
17.97960793,	891,
18.00414405,	766,
18.02868017,	780,
18.0532163,	755,
18.07775242,	759,
18.10228854,	779,
18.12682466,	741,
18.15136078,	683,
18.1758969,	726,
18.20043302,	689,
18.22496914,	663,
18.24950526,	652,
18.27404138,	690,
18.2985775,	653,
18.32311362,	715,
18.34764975,	650,
18.37218587,	634,
18.39672199,	714,
18.42125811,	689,
18.44579423,	717,
18.47033035,	647,
18.49486647,	676,
18.51940259,	681,
18.54393871,	684,
18.56847483,	735,
18.59301095,	653,
18.61754708,	706,
18.6420832,	689,
18.66661932,	723,
18.69115544,	685,
18.71569156,	618,
18.74022768,	681,
18.7647638,	703,
18.78929992,	687,
18.81383604,	664,
18.83837216,	601,
18.86290828,	665,
18.8874444,	664,
18.91198053,	642,
18.93651665,	694,
18.96105277,	709,
18.98558889,	686,
19.01012501,	691,
19.03466113,	701,
19.05919725,	714,
19.08373337,	719,
19.10826949,	663,
19.13280561,	717,
19.15734173,	668,
19.18187785,	706,
19.20641398,	678,
19.2309501,	664,
19.25548622,	675,
19.28002234,	686,
19.30455846,	712,
19.32909458,	714,
19.3536307,	736,
19.37816682,	794,
19.40270294,	772,
19.42723906,	724,
19.45177518,	780,
19.47631131,	799,
19.50084743,	779,
19.52538355,	723,
19.54991967,	803,
19.57445579,	830,
19.59899191,	869,
19.62352803,	899,
19.64806415,	792,
19.67260027,	791,
19.69713639,	778,
19.72167251,	850,
19.74620863,	982,
19.77074476,	887,
19.79528088,	978,
19.819817,	1022,
19.84435312,	1145,
19.86888924,	1190,
19.89342536,	1291,
19.91796148,	1253,
19.9424976,	1218,
19.96703372,	1175,
19.99156984,	1102,
20.01610596,	1040,
20.04064208,	924,
20.06517821,	895,
20.08971433,	864,
20.11425045,	776,
20.13878657,	725,
20.16332269,	673,
20.18785881,	701,
20.21239493,	708,
20.23693105,	641,
20.26146717,	663,
20.28600329,	662,
20.31053941,	640,
20.33507554,	653,
20.35961166,	646,
20.38414778,	697,
20.4086839,	642,
20.43322002,	670,
20.45775614,	660,
20.48229226,	657,
20.50682838,	601,
20.5313645,	675,
20.55590062,	691,
20.58043674,	652,
20.60497286,	632,
20.62950899,	664,
20.65404511,	645,
20.67858123,	607,
20.70311735,	634,
20.72765347,	594,
20.75218959,	630,
20.77672571,	663,
20.80126183,	679,
20.82579795,	606,
20.85033407,	620,
20.87487019,	647,
20.89940631,	605,
20.92394244,	613,
20.94847856,	612,
20.97301468,	655,
20.9975508,	655,
21.02208692,	638,
21.04662304,	600,
21.07115916,	597,
21.09569528,	646,
21.1202314,	622,
21.14476752,	652,
21.16930364,	633,
21.19383976,	642,
21.21837589,	660,
21.24291201,	637,
21.26744813,	691,
21.29198425,	724,
21.31652037,	784,
21.34105649,	757,
21.36559261,	693,
21.39012873,	695,
21.41466485,	695,
21.43920097,	691,
21.46373709,	792,
21.48827322,	779,
21.51280934,	794,
21.53734546,	691,
21.56188158,	686,
21.5864177,	730,
21.61095382,	691,
21.63548994,	728,
21.66002606,	671,
21.68456218,	647,
21.7090983,	639,
21.73363442,	694,
21.75817054,	748,
21.78270667,	691,
21.80724279,	700,
21.83177891,	699,
21.85631503,	700,
21.88085115,	784,
21.90538727,	836,
21.92992339,	809,
21.95445951,	790,
21.97899563,	730,
22.00353175,	753,
22.02806787,	791,
22.05260399,	865,
22.07714012,	835,
22.10167624,	872,
22.12621236,	823,
22.15074848,	769,
22.1752846,	849,
22.19982072,	815,
22.22435684,	769,
22.24889296,	828,
22.27342908,	796,
22.2979652,	819,
22.32250132,	805,
22.34703745,	753,
22.37157357,	769,
22.39610969,	738,
22.42064581,	808,
22.44518193,	802,
22.46971805,	943,
22.49425417,	978,
22.51879029,	1024,
22.54332641,	1113,
22.56786253,	1118,
22.59239865,	1117,
22.61693477,	1046,
22.6414709,	993,
22.66600702,	1015,
22.69054314,	914,
22.71507926,	951,
22.73961538,	913,
22.7641515,	896,
22.78868762,	749,
22.81322374,	670,
22.83775986,	726,
22.86229598,	652,
22.8868321,	675,
22.91136822,	644,
22.93590435,	636,
22.96044047,	567,
22.98497659,	684,
23.00951271,	632,
23.03404883,	639,
23.05858495,	635,
23.08312107,	688,
23.10765719,	659,
23.13219331,	673,
23.15672943,	607,
23.18126555,	638,
23.20580168,	630,
23.2303378,	655,
23.25487392,	638,
23.27941004,	621,
23.30394616,	602,
23.32848228,	557,
23.3530184,	651,
23.37755452,	602,
23.40209064,	606,
23.42662676,	582,
23.45116288,	590,
23.475699,	632,
23.50023513,	639,
23.52477125,	614,
23.54930737,	609,
23.57384349,	604,
23.59837961,	640,
23.62291573,	635,
23.64745185,	636,
23.67198797,	587,
23.69652409,	538,
23.72106021,	601,
23.74559633,	603,
23.77013245,	595,
23.79466858,	604,
23.8192047,	574,
23.84374082,	609,
23.86827694,	605,
23.89281306,	602,
23.91734918,	613,
23.9418853,	644,
23.96642142,	609,
23.99095754,	577,
24.01549366,	632,
24.04002978,	619,
24.06456591,	645,
24.08910203,	603,
24.11363815,	573,
24.13817427,	618,
24.16271039,	652,
24.18724651,	619,
24.21178263,	635,
24.23631875,	610,
24.26085487,	583,
24.28539099,	609,
24.30992711,	601,
24.33446323,	606,
24.35899936,	611,
24.38353548,	596,
24.4080716,	627,
24.43260772,	659,
24.45714384,	648,
24.48167996,	654,
24.50621608,	587,
24.5307522,	597,
24.55528832,	630,
24.57982444,	633,
24.60436056,	631,
24.62889668,	666,
24.65343281,	660,
24.67796893,	653,
24.70250505,	620,
24.72704117,	638,
24.75157729,	672,
24.77611341,	667,
24.80064953,	665,
24.82518565,	706,
24.84972177,	699,
24.87425789,	731,
24.89879401,	771,
24.92333014,	744,
24.94786626,	763,
24.97240238,	735,
24.9969385,	804,
25.02147462,	769,
25.04601074,	779,
25.07054686,	795,
25.09508298,	735,
25.1196191,	746,
25.14415522,	775,
25.16869134,	792,
25.19322746,	693,
25.21776359,	694,
25.24229971,	655,
25.26683583,	709,
25.29137195,	706,
25.31590807,	711,
25.34044419,	661,
25.36498031,	700,
25.38951643,	667,
25.41405255,	682,
25.43858867,	673,
25.46312479,	700,
25.48766091,	633,
25.51219704,	698,
25.53673316,	657,
25.56126928,	638,
25.5858054,	683,
25.61034152,	677,
25.63487764,	726,
25.65941376,	721,
25.68394988,	728,
25.708486,	702,
25.73302212,	623,
25.75755824,	664,
25.78209437,	695,
25.80663049,	711,
25.83116661,	703,
25.85570273,	627,
25.88023885,	675,
25.90477497,	627,
25.92931109,	638,
25.95384721,	638,
25.97838333,	608,
26.00291945,	629,
26.02745557,	611,
26.05199169,	639,
26.07652782,	605,
26.10106394,	637,
26.12560006,	663,
26.15013618,	628,
26.1746723,	628,
26.19920842,	594,
26.22374454,	645,
26.24828066,	639,
26.27281678,	651,
26.2973529,	613,
26.32188902,	627,
26.34642514,	622,
26.37096127,	618,
26.39549739,	628,
26.42003351,	636,
26.44456963,	657,
26.46910575,	670,
26.49364187,	642,
26.51817799,	632,
26.54271411,	646,
26.56725023,	652,
26.59178635,	668,
26.61632247,	655,
26.64085859,	620,
26.66539472,	683,
26.68993084,	632,
26.71446696,	669,
26.73900308,	665,
26.7635392,	669,
26.78807532,	676,
26.81261144,	697,
26.83714756,	674,
26.86168368,	702,
26.8862198,	737,
26.91075592,	636,
26.93529205,	689,
26.95982817,	737,
26.98436429,	724,
27.00890041,	697,
27.03343653,	754,
27.05797265,	671,
27.08250877,	703,
27.10704489,	701,
27.13158101,	674,
27.15611713,	746,
27.18065325,	749,
27.20518937,	697,
27.2297255,	694,
27.25426162,	677,
27.27879774,	646,
27.30333386,	724,
27.32786998,	681,
27.3524061,	680,
27.37694222,	615,
27.40147834,	664,
27.42601446,	651,
27.45055058,	702,
27.4750867,	646,
27.49962282,	655,
27.52415895,	659,
27.54869507,	659,
27.57323119,	680,
27.59776731,	601,
27.62230343,	637,
27.64683955,	655,
27.67137567,	675,
27.69591179,	674,
27.72044791,	662,
27.74498403,	679,
27.76952015,	645,
27.79405628,	671,
27.8185924,	651,
27.84312852,	672,
27.86766464,	671,
27.89220076,	710,
27.91673688,	685,
27.941273,	644,
27.96580912,	649,
27.99034524,	760,
28.01488136,	641,
28.03941748,	652,
28.0639536,	625,
28.08848973,	664,
28.11302585,	647,
28.13756197,	647,
28.16209809,	617,
28.18663421,	667,
28.21117033,	653,
28.23570645,	652,
28.26024257,	595,
28.28477869,	685,
28.30931481,	620,
28.33385093,	664,
28.35838705,	703,
28.38292318,	664,
28.4074593,	655,
28.43199542,	675,
28.45653154,	656,
28.48106766,	697,
28.50560378,	669,
28.5301399,	637,
28.55467602,	635,
28.57921214,	652,
28.60374826,	669,
28.62828438,	725,
28.65282051,	681,
28.67735663,	684,
28.70189275,	663,
28.72642887,	641,
28.75096499,	672,
28.77550111,	645,
28.80003723,	751,
28.82457335,	695,
28.84910947,	664,
28.87364559,	697,
28.89818171,	656,
28.92271783,	679,
28.94725396,	665,
28.97179008,	676,
28.9963262,	716,
29.02086232,	687,
29.04539844,	611,
29.06993456,	704,
29.09447068,	668,
29.1190068,	676,
29.14354292,	604,
29.16807904,	685,
29.19261516,	645,
29.21715128,	615,
29.24168741,	625,
29.26622353,	585,
29.29075965,	635,
29.31529577,	600,
29.33983189,	632,
29.36436801,	575,
29.38890413,	610,
29.41344025,	642,
29.43797637,	637,
29.46251249,	587,
29.48704861,	586,
29.51158474,	654,
29.53612086,	620,
29.56065698,	662,
29.5851931,	626,
29.60972922,	649,
29.63426534,	601,
29.65880146,	590,
29.68333758,	591,
29.7078737,	645,
29.73240982,	647,
29.75694594,	635,
29.78148206,	587,
29.80601819,	586,
29.83055431,	621,
29.85509043,	636,
29.87962655,	611,
29.90416267,	637,
29.92869879,	650,
29.95323491,	601,
29.97777103,	654,
30.00230715,	626,
30.02684327,	606,
30.05137939,	642,
30.07591551,	644,
30.10045164,	648,
30.12498776,	617,
30.14952388,	654,
30.17406,	676,
30.19859612,	645,
30.22313224,	637,
30.24766836,	691,
30.27220448,	644,
30.2967406,	645,
30.32127672,	621,
30.34581284,	654,
30.37034897,	626,
30.39488509,	638,
30.41942121,	633,
30.44395733,	659,
30.46849345,	666,
30.49302957,	635,
30.51756569,	645,
30.54210181,	679,
30.56663793,	650,
30.59117405,	617,
30.61571017,	665,
30.64024629,	619,
30.66478242,	632,
30.68931854,	612,
30.71385466,	639,
30.73839078,	622,
30.7629269,	625,
30.78746302,	628,
30.81199914,	657,
30.83653526,	613,
30.86107138,	655,
30.8856075,	638,
30.91014362,	629,
30.93467974,	644,
30.95921587,	628,
30.98375199,	621,
31.00828811,	610,
31.03282423,	682,
31.05736035,	603,
31.08189647,	634,
31.10643259,	559,
31.13096871,	555,
31.15550483,	582,
31.18004095,	616,
31.20457707,	579,
31.2291132,	561,
31.25364932,	580,
31.27818544,	604,
31.30272156,	601,
31.32725768,	589,
31.3517938,	610,
31.37632992,	588,
31.40086604,	647,
31.42540216,	611,
31.44993828,	647,
31.4744744,	636,
31.49901052,	615,
31.52354665,	572,
31.54808277,	628,
31.57261889,	619,
31.59715501,	656,
31.62169113,	614,
31.64622725,	655,
31.67076337,	621,
31.69529949,	669,
31.71983561,	627,
31.74437173,	615,
31.76890785,	629,
31.79344397,	615,
31.8179801,	602,
31.84251622,	642,
31.86705234,	648,
31.89158846,	649,
31.91612458,	626,
31.9406607,	642,
31.96519682,	622,
31.98973294,	644,
32.01426906,	653,
32.03880518,	652,
32.0633413,	631,
32.08787743,	684,
32.11241355,	654,
32.13694967,	622,
32.16148579,	650,
32.18602191,	622,
32.21055803,	592,
32.23509415,	618,
32.25963027,	663,
32.28416639,	648,
32.30870251,	614,
32.33323863,	601,
32.35777475,	591,
32.38231088,	593,
32.406847,	625,
32.43138312,	564,
32.45591924,	530,
32.48045536,	568,
32.50499148,	571,
32.5295276,	584,
32.55406372,	562,
32.57859984,	575,
32.60313596,	607,
32.62767208,	567,
32.6522082,	568,
32.67674433,	578,
32.70128045,	567,
32.72581657,	543,
32.75035269,	570,
32.77488881,	559,
32.79942493,	583,
32.82396105,	545,
32.84849717,	540,
32.87303329,	596,
32.89756941,	534,
32.92210553,	546,
32.94664165,	536,
32.97117778,	505,
32.9957139,	553,
33.02025002,	587,
33.04478614,	565,
33.06932226,	558,
33.09385838,	546,
33.1183945,	568,
33.14293062,	528,
33.16746674,	590,
33.19200286,	543,
33.21653898,	577,
33.24107511,	520,
33.26561123,	599,
33.29014735,	597,
33.31468347,	553,
33.33921959,	531,
33.36375571,	586,
33.38829183,	586,
33.41282795,	593,
33.43736407,	535,
33.46190019,	556,
33.48643631,	540,
33.51097243,	595,
33.53550856,	587,
33.56004468,	584,
33.5845808,	560,
33.60911692,	532,
33.63365304,	541,
33.65818916,	540,
33.68272528,	536,
33.7072614,	543,
33.73179752,	540,
33.75633364,	518,
33.78086976,	543,
33.80540588,	495,
33.82994201,	511,
33.85447813,	540,
33.87901425,	523,
33.90355037,	562,
33.92808649,	539,
33.95262261,	570,
33.97715873,	533,
34.00169485,	539,
34.02623097,	547,
34.05076709,	540,
34.07530321,	572,
34.09983934,	510,
34.12437546,	525,
34.14891158,	560,
34.1734477,	585,
34.19798382,	511,
34.22251994,	539,
34.24705606,	507,
34.27159218,	559,
34.2961283,	547,
34.32066442,	551,
34.34520054,	526,
34.36973666,	557,
34.39427279,	472,
34.41880891,	537,
34.44334503,	549,
34.46788115,	492,
34.49241727,	515,
34.51695339,	565,
34.54148951,	541,
34.56602563,	509,
34.59056175,	552,
34.61509787,	525,
34.63963399,	519,
34.66417011,	546,
34.68870624,	547,
34.71324236,	520,
34.73777848,	516,
34.7623146,	560,
34.78685072,	528,
34.81138684,	537,
34.83592296,	557,
34.86045908,	554,
34.8849952,	555,
34.90953132,	514,
34.93406744,	564,
34.95860357,	568,
34.98313969,	539,
35.00767581,	513,
35.03221193,	538,
35.05674805,	456,
35.08128417,	530,
35.10582029,	513,
35.13035641,	513,
35.15489253,	517,
35.17942865,	493,
35.20396477,	557,
35.22850089,	517,
35.25303702,	480,
35.27757314,	501,
35.30210926,	481,
35.32664538,	524,
35.3511815,	533,
35.37571762,	537,
35.40025374,	499,
35.42478986,	481,
35.44932598,	540,
35.4738621,	505,
35.49839822,	508,
35.52293434,	494,
35.54747047,	539,
35.57200659,	498,
35.59654271,	524,
35.62107883,	505,
35.64561495,	484,
35.67015107,	526,
35.69468719,	528,
35.71922331,	549,
35.74375943,	579,
35.76829555,	510,
35.79283167,	534,
35.8173678,	550,
35.84190392,	516,
35.86644004,	522,
35.89097616,	494,
35.91551228,	500,
35.9400484,	536,
35.96458452,	547,
35.98912064,	505,
36.01365676,	574,
36.03819288,	534,
36.062729,	456,
36.08726512,	486,
36.11180125,	521,
36.13633737,	544,
36.16087349,	504,
36.18540961,	527,
36.20994573,	444,
36.23448185,	504,
36.25901797,	536,
36.28355409,	518,
36.30809021,	512,
36.33262633,	519,
36.35716245,	500,
36.38169857,	486,
36.4062347,	460,
36.43077082,	488,
36.45530694,	487,
36.47984306,	477,
36.50437918,	508,
36.5289153,	481,
36.55345142,	483,
36.57798754,	437,
36.60252366,	477,
36.62705978,	480,
36.6515959,	473,
36.67613203,	470,
36.70066815,	454,
36.72520427,	483,
36.74974039,	473,
36.77427651,	472,
36.79881263,	448,
36.82334875,	489,
36.84788487,	447,
36.87242099,	468,
36.89695711,	430,
36.92149323,	478,
36.94602935,	405,
36.97056548,	435,
36.9951016,	467,
37.01963772,	450,
37.04417384,	439,
37.06870996,	456,
37.09324608,	485,
37.1177822,	431,
37.14231832,	458,
37.16685444,	456,
37.19139056,	437,
37.21592668,	421,
37.2404628,	448,
37.26499893,	433,
37.28953505,	448,
37.31407117,	433,
37.33860729,	416,
37.36314341,	438,
37.38767953,	438,
37.41221565,	443,
37.43675177,	435,
37.46128789,	433,
37.48582401,	410,
37.51036013,	453,
37.53489626,	428,
37.55943238,	437,
37.5839685,	486,
37.60850462,	423,
37.63304074,	466,
37.65757686,	435,
37.68211298,	453,
37.7066491,	416,
37.73118522,	438,
37.75572134,	419,
37.78025746,	373,
37.80479358,	409,
37.82932971,	407,
37.85386583,	441,
37.87840195,	417,
37.90293807,	427,
37.92747419,	409,
37.95201031,	382,
37.97654643,	427,
38.00108255,	377,
38.02561867,	375,
38.05015479,	401,
38.07469091,	442,
38.09922703,	422,
38.12376316,	410,
38.14829928,	390,
38.1728354,	432,
38.19737152,	457,
38.22190764,	395,
38.24644376,	391,
38.27097988,	390,
38.295516,	420,
38.32005212,	430,
38.34458824,	407,
38.36912436,	409,
38.39366049,	425,
38.41819661,	426,
38.44273273,	398,
38.46726885,	423,
38.49180497,	419,
38.51634109,	426,
38.54087721,	396,
38.56541333,	429,
38.58994945,	407,
38.61448557,	403,
38.63902169,	380,
38.66355781,	414,
38.68809394,	393,
38.71263006,	381,
38.73716618,	350,
38.7617023,	423,
38.78623842,	412,
38.81077454,	390,
38.83531066,	395,
38.85984678,	413,
38.8843829,	384,
38.90891902,	399,
38.93345514,	387,
38.95799126,	416,
38.98252739,	385,
39.00706351,	405,
39.03159963,	426,
39.05613575,	430,
39.08067187,	426,
39.10520799,	373,
39.12974411,	408,
39.15428023,	408,
39.17881635,	409,
39.20335247,	391,
39.22788859,	375,
39.25242471,	381,
39.27696084,	405,
39.30149696,	409,
39.32603308,	431,
39.3505692,	427,
39.37510532,	423,
39.39964144,	430,
39.42417756,	431,
39.44871368,	465,
39.4732498,	455,
39.49778592,	444,
39.52232204,	443,
39.54685817,	439,
39.57139429,	458,
39.59593041,	435,
39.62046653,	461,
39.64500265,	388,
39.66953877,	434,
39.69407489,	449,
39.71861101,	482,
39.74314713,	467,
39.76768325,	451,
39.79221937,	443,
39.81675549,	382,
39.84129162,	433,
39.86582774,	420,
39.89036386,	411,
39.91489998,	427,
39.9394361,	436,
39.96397222,	449,
39.98850834,	422,

