;RAW4.00
[RawHeader]
Date=01/17/2022
EstimatedTotalTime=633.565
FurtherDQLReading=0
HardwareIndicator=65519
MeasuredTotalTime=633.565
MeasurementFlag=1
NumberOfMeasuredRanges=1
NumberOfRanges=1
Time=11:21:31

[VarInfo]
Type=USER
Flags=0
Value=Lab Manager

[VarInfo]
Type=SAMPLEID
Flags=0
Value=

[VarInfo]
Type=COMMENT
Flags=0
Value=

[VarInfo]
Type=UTF
Flags=0
Value=

[VarInfo]
Type=CREATOR
Flags=0
Value=BrmlToV4Converter

[VarInfo]
Type=CREATOR_VERSION
Flags=0
Value=7.3.1.0

[HardwareConfiguration]
AbsorptionFactor=9999
ActivateAbsorber=0
Alpha1=0.7093
Alpha2=0.71359
AlphaAverage=0.71073
AlphaRatio=0.5
Analyzer=0
Anode=Mo
AntiScatteringSlit=18
BeamOpticsFlags=0
Beta=0.63229
BetaRelativeIntensity=0
DeactivateAbsorber=0
DetectorSlit=9999
DivergenceSlit=0.2
GoniometerControl=0
GoniometerDiameter=560
GoniometerModel=512
GoniometerStage=7
Monochromator=0
NearSampleSlit=9999
PrimarySollerSlit=2.5
SampleChanger=0
SecondSollerSlit=9999
SynchronousAxis=0
ThinFilmAttachment=9999
WaveUnit=A

[RangeHeader]
ActuallyUsedLambda=0.71073
AdditionalDetectorMask=257
DataRecordLength=4
DelayTime=0
DisplayPlaneNumber=0
EstimatedScanTime=634
ExtraParametersMask=0
GeneratorCurrent=40
GeneratorVoltage=50
Increment=0.0245361
Increment3=0
NumberOfCompletedData=1427
NumberOfCounts=1
NumberOfDetectors=0
NumberOfDrives=2
NumberOfEncoderDrives=0
NumberOfMeasuredData=1427
NumberOfVaryingParameters=0
RangeStartTime=0
RotationSpeed=60
ScanMode=1
ScanType=Locked Coupled
SimulatedMeasConditions=0
SlitChangerIn=0
SmootingWidth=0
Start=5
Steps=1427
SynchronousRotation=0
Time=76.8

[VarInfo]
Type=PSD_DISCRIM
Flags=0
Value=0.488;0.518

[PSD]
ActualTwoTheta=9999
FirstUsedChannel=0
FixedPSD=0
PSDOpening=2.94433
PSDType=5

[Drive]
DriveFlags=1
DriveName=2Theta
DriveNumber=2
DriveOffset=0
OffsetIndex=0
OscillationAmplitude=0
OscillationSpeed=0
StartPosition=5

[Drive]
DriveFlags=1
DriveName=Theta
DriveNumber=1
DriveOffset=0
OffsetIndex=0
OscillationAmplitude=0
OscillationSpeed=0
StartPosition=2.5

[Data]
     Angle,       PSD,
         5,       239,
   5.02454,       306,
   5.04907,       189,
   5.07361,       289,
   5.09814,       221,
   5.12268,       264,
   5.14722,       288,
   5.17175,       171,
   5.19629,       333,
   5.22083,       230,
   5.24536,       285,
    5.2699,       352,
   5.29443,       205,
   5.31897,       358,
   5.34351,       270,
   5.36804,       283,
   5.39258,       380,
   5.41711,       182,
   5.44165,       369,
   5.46619,       279,
   5.49072,       299,
   5.51526,       364,
   5.53979,       181,
   5.56433,       354,
   5.58887,       256,
    5.6134,       288,
   5.63794,       384,
   5.66248,       191,
   5.68701,       366,
   5.71155,       294,
   5.73608,       265,
   5.76062,       366,
   5.78516,       191,
   5.80969,       336,
   5.83423,       288,
   5.85876,       225,
    5.8833,       343,
   5.90784,       207,
   5.93237,       383,
   5.95691,       286,
   5.98144,       265,
   6.00598,       300,
   6.03052,       159,
   6.05505,       307,
   6.07959,       240,
   6.10413,       251,
   6.12866,       286,
    6.1532,       162,
   6.17773,       318,
   6.20227,       260,
   6.22681,       237,
   6.25134,       292,
   6.27588,       160,
   6.30041,       284,
   6.32495,       232,
   6.34949,       192,
   6.37402,       276,
   6.39856,       163,
    6.4231,       291,
   6.44763,       200,
   6.47217,       202,
    6.4967,       254,
   6.52124,       131,
   6.54578,       260,
   6.57031,       200,
   6.59485,       212,
   6.61938,       278,
   6.64392,       135,
   6.66846,       270,
   6.69299,       209,
   6.71753,       196,
   6.74206,       241,
    6.7666,       130,
   6.79114,       240,
   6.81567,       197,
   6.84021,       221,
   6.86475,       233,
   6.88928,       151,
   6.91382,       262,
   6.93835,       178,
   6.96289,       199,
   6.98743,       236,
   7.01196,       152,
    7.0365,       243,
   7.06103,       201,
   7.08557,       180,
   7.11011,       241,
   7.13464,       146,
   7.15918,       250,
   7.18371,       185,
   7.20825,       187,
   7.23279,       254,
   7.25732,       123,
   7.28186,       257,
    7.3064,       191,
   7.33093,       194,
   7.35547,       246,
      7.38,       142,
   7.40454,       238,
   7.42908,       178,
   7.45361,       204,
   7.47815,       250,
   7.50268,       138,
   7.52722,       245,
   7.55176,       188,
   7.57629,       181,
   7.60083,       249,
   7.62536,       135,
    7.6499,       268,
   7.67444,       176,
   7.69897,       175,
   7.72351,       258,
   7.74805,       119,
   7.77258,       286,
   7.79712,       186,
   7.82165,       207,
   7.84619,       269,
   7.87073,       156,
   7.89526,       222,
    7.9198,       209,
   7.94433,       196,
   7.96887,       261,
   7.99341,       142,
   8.01794,       252,
   8.04248,       192,
   8.06702,       183,
   8.09155,       266,
   8.11609,       149,
   8.14062,       261,
   8.16516,       211,
    8.1897,       198,
   8.21423,       284,
   8.23877,       148,
    8.2633,       255,
   8.28784,       192,
   8.31238,       218,
   8.33691,       249,
   8.36145,       171,
   8.38598,       286,
   8.41052,       210,
   8.43506,       222,
   8.45959,       293,
   8.48413,       184,
   8.50867,       291,
    8.5332,       219,
   8.55774,       210,
   8.58227,       319,
   8.60681,       219,
   8.63135,       281,
   8.65588,       226,
   8.68042,       236,
   8.70495,       323,
   8.72949,       205,
   8.75403,       311,
   8.77856,       229,
    8.8031,       231,
   8.82763,       304,
   8.85217,       186,
   8.87671,       311,
   8.90124,       248,
   8.92578,       214,
   8.95032,       316,
   8.97485,       232,
   8.99939,       345,
   9.02392,       281,
   9.04846,       259,
     9.073,       340,
   9.09753,       282,
   9.12207,       355,
    9.1466,       322,
   9.17114,       305,
   9.19568,       357,
   9.22021,       246,
   9.24475,       370,
   9.26929,       362,
   9.29382,       391,
   9.31836,       423,
   9.34289,       360,
   9.36743,       461,
   9.39197,       449,
    9.4165,       419,
   9.44104,       529,
   9.46557,       387,
   9.49011,       515,
   9.51465,       433,
   9.53918,       499,
   9.56372,       601,
   9.58825,       489,
   9.61279,       655,
   9.63733,       658,
   9.66186,       644,
    9.6864,       752,
   9.71094,       657,
   9.73547,       779,
   9.76001,       715,
   9.78454,       736,
   9.80908,       760,
   9.83362,       615,
   9.85815,       788,
   9.88269,       706,
   9.90722,       754,
   9.93176,       767,
    9.9563,       720,
   9.98083,       827,
   10.0054,       802,
   10.0299,       846,
   10.0544,       871,
    10.079,       779,
   10.1035,       905,
    10.128,       889,
   10.1526,       884,
   10.1771,       932,
   10.2017,       910,
   10.2262,       931,
   10.2507,       913,
   10.2753,       934,
   10.2998,       936,
   10.3243,       943,
   10.3489,      1038,
   10.3734,      1002,
   10.3979,       985,
   10.4225,      1003,
    10.447,       998,
   10.4716,      1030,
   10.4961,      1063,
   10.5206,      1038,
   10.5452,      1100,
   10.5697,      1174,
   10.5942,      1105,
   10.6188,      1131,
   10.6433,      1201,
   10.6678,      1241,
   10.6924,      1200,
   10.7169,      1181,
   10.7415,      1164,
    10.766,      1177,
   10.7905,      1206,
   10.8151,      1136,
   10.8396,      1195,
   10.8641,      1194,
   10.8887,      1220,
   10.9132,      1157,
   10.9377,      1246,
   10.9623,      1212,
   10.9868,      1252,
   11.0113,      1241,
   11.0359,      1304,
   11.0604,      1310,
    11.085,      1223,
   11.1095,      1195,
    11.134,      1332,
   11.1586,      1233,
   11.1831,      1290,
   11.2076,      1269,
   11.2322,      1316,
   11.2567,      1358,
   11.2812,      1351,
   11.3058,      1428,
   11.3303,      1365,
   11.3549,      1472,
   11.3794,      1618,
   11.4039,      1681,
   11.4285,      1916,
    11.453,      1954,
   11.4775,      2024,
   11.5021,      2028,
   11.5266,      1977,
   11.5511,      1891,
   11.5757,      1742,
   11.6002,      1493,
   11.6248,      1525,
   11.6493,      1375,
   11.6738,      1362,
   11.6984,      1400,
   11.7229,      1374,
   11.7474,      1377,
    11.772,      1366,
   11.7965,      1325,
    11.821,      1304,
   11.8456,      1349,
   11.8701,      1327,
   11.8946,      1431,
   11.9192,      1333,
   11.9437,      1270,
   11.9683,      1400,
   11.9928,      1343,
   12.0173,      1424,
   12.0419,      1331,
   12.0664,      1355,
   12.0909,      1354,
   12.1155,      1399,
     12.14,      1368,
   12.1645,      1339,
   12.1891,      1365,
   12.2136,      1376,
   12.2382,      1371,
   12.2627,      1450,
   12.2872,      1469,
   12.3118,      1484,
   12.3363,      1571,
   12.3608,      1804,
   12.3854,      1907,
   12.4099,      2051,
   12.4344,      2346,
    12.459,      2423,
   12.4835,      2360,
   12.5081,      2213,
   12.5326,      2017,
   12.5571,      1905,
   12.5817,      1779,
   12.6062,      1636,
   12.6307,      1473,
   12.6553,      1452,
   12.6798,      1455,
   12.7043,      1343,
   12.7289,      1376,
   12.7534,      1229,
    12.778,      1323,
   12.8025,      1217,
    12.827,      1260,
   12.8516,      1223,
   12.8761,      1250,
   12.9006,      1173,
   12.9252,      1229,
   12.9497,      1216,
   12.9742,      1216,
   12.9988,      1265,
   13.0233,      1231,
   13.0478,      1185,
   13.0724,      1165,
   13.0969,      1189,
   13.1215,      1262,
    13.146,      1253,
   13.1705,      1262,
   13.1951,      1166,
   13.2196,      1160,
   13.2441,      1238,
   13.2687,      1153,
   13.2932,      1142,
   13.3177,      1287,
   13.3423,      1295,
   13.3668,      1205,
   13.3914,      1299,
   13.4159,      1239,
   13.4404,      1320,
    13.465,      1503,
   13.4895,      1868,
    13.514,      2036,
   13.5386,      1876,
   13.5631,      1697,
   13.5876,      1663,
   13.6122,      1485,
   13.6367,      1341,
   13.6613,      1242,
   13.6858,      1219,
   13.7103,      1178,
   13.7349,      1153,
   13.7594,      1137,
   13.7839,      1108,
   13.8085,      1095,
    13.833,      1056,
   13.8575,      1102,
   13.8821,      1090,
   13.9066,      1096,
   13.9311,      1098,
   13.9557,      1141,
   13.9802,      1110,
   14.0048,      1068,
   14.0293,      1123,
   14.0538,      1046,
   14.0784,      1062,
   14.1029,      1027,
   14.1274,      1039,
    14.152,      1043,
   14.1765,      1069,
    14.201,      1050,
   14.2256,      1092,
   14.2501,      1080,
   14.2747,      1064,
   14.2992,      1012,
   14.3237,      1013,
   14.3483,      1048,
   14.3728,      1010,
   14.3973,      1070,
   14.4219,      1018,
   14.4464,      1055,
   14.4709,      1022,
   14.4955,      1074,
     14.52,      1017,
   14.5446,      1062,
   14.5691,      1079,
   14.5936,      1013,
   14.6182,      1064,
   14.6427,      1059,
   14.6672,      1083,
   14.6918,      1019,
   14.7163,      1033,
   14.7408,      1049,
   14.7654,      1114,
   14.7899,      1057,
   14.8144,      1080,
    14.839,      1154,
   14.8635,      1127,
   14.8881,      1230,
   14.9126,      1337,
   14.9371,      1505,
   14.9617,      1630,
   14.9862,      1735,
   15.0107,      1857,
   15.0353,      1897,
   15.0598,      1799,
   15.0843,      1667,
   15.1089,      1570,
   15.1334,      1574,
    15.158,      1320,
   15.1825,      1240,
    15.207,      1169,
   15.2316,      1124,
   15.2561,      1117,
   15.2806,      1002,
   15.3052,      1006,
   15.3297,      1020,
   15.3542,       920,
   15.3788,      1010,
   15.4033,       895,
   15.4279,       975,
   15.4524,       918,
   15.4769,       927,
   15.5015,       925,
    15.526,       885,
   15.5505,       879,
   15.5751,       861,
   15.5996,       880,
   15.6241,       876,
   15.6487,       872,
   15.6732,       846,
   15.6977,       871,
   15.7223,       824,
   15.7468,       769,
   15.7714,       831,
   15.7959,       869,
   15.8204,       858,
    15.845,       857,
   15.8695,       806,
    15.894,       839,
   15.9186,       814,
   15.9431,       861,
   15.9676,       784,
   15.9922,       801,
   16.0167,       774,
   16.0413,       795,
   16.0658,       804,
   16.0903,       758,
   16.1149,       758,
   16.1394,       773,
   16.1639,       831,
   16.1885,       751,
    16.213,       772,
   16.2375,       791,
   16.2621,       848,
   16.2866,       784,
   16.3112,       774,
   16.3357,       782,
   16.3602,       783,
   16.3848,       830,
   16.4093,       861,
   16.4338,       855,
   16.4584,       847,
   16.4829,       798,
   16.5074,       805,
    16.532,       803,
   16.5565,       779,
    16.581,       793,
   16.6056,       772,
   16.6301,       746,
   16.6547,       767,
   16.6792,       718,
   16.7037,       739,
   16.7283,       694,
   16.7528,       735,
   16.7773,       729,
   16.8019,       747,
   16.8264,       757,
   16.8509,       687,
   16.8755,       742,
      16.9,       737,
   16.9246,       788,
   16.9491,       696,
   16.9736,       718,
   16.9982,       694,
   17.0227,       704,
   17.0472,       698,
   17.0718,       695,
   17.0963,       727,
   17.1208,       699,
   17.1454,       692,
   17.1699,       704,
   17.1945,       735,
    17.219,       733,
   17.2435,       721,
   17.2681,       645,
   17.2926,       720,
   17.3171,       739,
   17.3417,       729,
   17.3662,       725,
   17.3907,       703,
   17.4153,       663,
   17.4398,       705,
   17.4643,       685,
   17.4889,       734,
   17.5134,       684,
    17.538,       709,
   17.5625,       738,
    17.587,       713,
   17.6116,       717,
   17.6361,       772,
   17.6606,       763,
   17.6852,       758,
   17.7097,       729,
   17.7342,       804,
   17.7588,       754,
   17.7833,       720,
   17.8079,       711,
   17.8324,       782,
   17.8569,       769,
   17.8815,       758,
    17.906,       785,
   17.9305,       840,
   17.9551,       844,
   17.9796,       841,
   18.0041,       834,
   18.0287,       772,
   18.0532,       827,
   18.0778,       812,
   18.1023,       774,
   18.1268,       714,
   18.1514,       759,
   18.1759,       708,
   18.2004,       744,
    18.225,       701,
   18.2495,       734,
    18.274,       692,
   18.2986,       707,
   18.3231,       712,
   18.3476,       709,
   18.3722,       738,
   18.3967,       659,
   18.4213,       786,
   18.4458,       710,
   18.4703,       681,
   18.4949,       710,
   18.5194,       670,
   18.5439,       709,
   18.5685,       698,
    18.593,       721,
   18.6175,       697,
   18.6421,       676,
   18.6666,       703,
   18.6912,       671,
   18.7157,       687,
   18.7402,       638,
   18.7648,       735,
   18.7893,       701,
   18.8138,       765,
   18.8384,       695,
   18.8629,       743,
   18.8874,       682,
    18.912,       724,
   18.9365,       653,
   18.9611,       695,
   18.9856,       743,
   19.0101,       725,
   19.0347,       714,
   19.0592,       739,
   19.0837,       704,
   19.1083,       702,
   19.1328,       795,
   19.1573,       710,
   19.1819,       707,
   19.2064,       702,
    19.231,       692,
   19.2555,       717,
     19.28,       736,
   19.3046,       705,
   19.3291,       744,
   19.3536,       759,
   19.3782,       837,
   19.4027,       737,
   19.4272,       827,
   19.4518,       827,
   19.4763,       797,
   19.5008,       745,
   19.5254,       770,
   19.5499,       798,
   19.5745,       806,
    19.599,       822,
   19.6235,       807,
   19.6481,       787,
   19.6726,       760,
   19.6971,       856,
   19.7217,       855,
   19.7462,       863,
   19.7707,       906,
   19.7953,       962,
   19.8198,      1019,
   19.8444,      1121,
   19.8689,      1091,
   19.8934,      1129,
    19.918,      1108,
   19.9425,      1107,
    19.967,      1011,
   19.9916,      1060,
   20.0161,      1014,
   20.0406,       940,
   20.0652,       870,
   20.0897,       797,
   20.1143,       775,
   20.1388,       760,
   20.1633,       762,
   20.1879,       738,
   20.2124,       695,
   20.2369,       704,
   20.2615,       713,
    20.286,       693,
   20.3105,       673,
   20.3351,       664,
   20.3596,       685,
   20.3841,       719,
   20.4087,       680,
   20.4332,       653,
   20.4578,       705,
   20.4823,       692,
   20.5068,       662,
   20.5314,       678,
   20.5559,       646,
   20.5804,       707,
    20.605,       650,
   20.6295,       662,
    20.654,       704,
   20.6786,       661,
   20.7031,       673,
   20.7277,       639,
   20.7522,       673,
   20.7767,       648,
   20.8013,       666,
   20.8258,       698,
   20.8503,       661,
   20.8749,       681,
   20.8994,       652,
   20.9239,       592,
   20.9485,       668,
    20.973,       677,
   20.9976,       686,
   21.0221,       692,
   21.0466,       720,
   21.0712,       692,
   21.0957,       599,
   21.1202,       691,
   21.1448,       632,
   21.1693,       732,
   21.1938,       685,
   21.2184,       670,
   21.2429,       702,
   21.2674,       703,
    21.292,       737,
   21.3165,       770,
   21.3411,       771,
   21.3656,       755,
   21.3901,       674,
   21.4147,       757,
   21.4392,       753,
   21.4637,       796,
   21.4883,       809,
   21.5128,       781,
   21.5373,       754,
   21.5619,       737,
   21.5864,       736,
    21.611,       780,
   21.6355,       693,
     21.66,       738,
   21.6846,       722,
   21.7091,       727,
   21.7336,       707,
   21.7582,       695,
   21.7827,       692,
   21.8072,       699,
   21.8318,       695,
   21.8563,       739,
   21.8809,       832,
   21.9054,       860,
   21.9299,       831,
   21.9545,       816,
    21.979,       758,
   22.0035,       822,
   22.0281,       827,
   22.0526,       829,
   22.0771,       820,
   22.1017,       773,
   22.1262,       858,
   22.1507,       850,
   22.1753,       824,
   22.1998,       710,
   22.2244,       818,
   22.2489,       760,
   22.2734,       773,
    22.298,       791,
   22.3225,       760,
    22.347,       754,
   22.3716,       746,
   22.3961,       739,
   22.4206,       774,
   22.4452,       816,
   22.4697,       898,
   22.4943,       927,
   22.5188,       937,
   22.5433,      1014,
   22.5679,       995,
   22.5924,       976,
   22.6169,       907,
   22.6415,       955,
    22.666,       941,
   22.6905,       905,
   22.7151,       886,
   22.7396,       835,
   22.7642,       811,
   22.7887,       739,
   22.8132,       757,
   22.8378,       703,
   22.8623,       675,
   22.8868,       726,
   22.9114,       663,
   22.9359,       675,
   22.9604,       636,
    22.985,       630,
   23.0095,       670,
    23.034,       664,
   23.0586,       647,
   23.0831,       658,
   23.1077,       656,
   23.1322,       674,
   23.1567,       640,
   23.1813,       669,
   23.2058,       673,
   23.2303,       673,
   23.2549,       590,
   23.2794,       632,
   23.3039,       625,
   23.3285,       665,
    23.353,       650,
   23.3776,       618,
   23.4021,       644,
   23.4266,       683,
   23.4512,       624,
   23.4757,       684,
   23.5002,       657,
   23.5248,       628,
   23.5493,       619,
   23.5738,       627,
   23.5984,       600,
   23.6229,       640,
   23.6475,       665,
    23.672,       671,
   23.6965,       652,
   23.7211,       600,
   23.7456,       662,
   23.7701,       586,
   23.7947,       607,
   23.8192,       617,
   23.8437,       627,
   23.8683,       611,
   23.8928,       627,
   23.9173,       668,
   23.9419,       647,
   23.9664,       624,
    23.991,       657,
   24.0155,       664,
     24.04,       671,
   24.0646,       644,
   24.0891,       645,
   24.1136,       640,
   24.1382,       628,
   24.1627,       628,
   24.1872,       643,
   24.2118,       643,
   24.2363,       613,
   24.2609,       591,
   24.2854,       654,
   24.3099,       614,
   24.3345,       668,
    24.359,       686,
   24.3835,       661,
   24.4081,       657,
   24.4326,       640,
   24.4571,       665,
   24.4817,       612,
   24.5062,       644,
   24.5308,       647,
   24.5553,       649,
   24.5798,       689,
   24.6044,       672,
   24.6289,       699,
   24.6534,       667,
    24.678,       667,
   24.7025,       689,
    24.727,       653,
   24.7516,       672,
   24.7761,       700,
   24.8006,       733,
   24.8252,       730,
   24.8497,       711,
   24.8743,       720,
   24.8988,       732,
   24.9233,       742,
   24.9479,       745,
   24.9724,       813,
   24.9969,       804,
   25.0215,       809,
    25.046,       833,
   25.0705,       732,
   25.0951,       781,
   25.1196,       729,
   25.1442,       752,
   25.1687,       779,
   25.1932,       753,
   25.2178,       681,
   25.2423,       630,
   25.2668,       708,
   25.2914,       720,
   25.3159,       775,
   25.3404,       729,
    25.365,       651,
   25.3895,       684,
   25.4141,       649,
   25.4386,       717,
   25.4631,       732,
   25.4877,       701,
   25.5122,       692,
   25.5367,       689,
   25.5613,       668,
   25.5858,       744,
   25.6103,       673,
   25.6349,       772,
   25.6594,       741,
   25.6839,       741,
   25.7085,       750,
    25.733,       683,
   25.7576,       719,
   25.7821,       711,
   25.8066,       721,
   25.8312,       704,
   25.8557,       656,
   25.8802,       679,
   25.9048,       699,
   25.9293,       633,
   25.9538,       665,
   25.9784,       676,
   26.0029,       695,
   26.0275,       666,
    26.052,       683,
   26.0765,       668,
   26.1011,       661,
   26.1256,       651,
   26.1501,       680,
   26.1747,       694,
   26.1992,       654,
   26.2237,       656,
   26.2483,       674,
   26.2728,       642,
   26.2974,       660,
   26.3219,       645,
   26.3464,       657,
    26.371,       686,
   26.3955,       632,
     26.42,       698,
   26.4446,       682,
   26.4691,       679,
   26.4936,       630,
   26.5182,       658,
   26.5427,       680,
   26.5673,       705,
   26.5918,       687,
   26.6163,       737,
   26.6409,       714,
   26.6654,       727,
   26.6899,       667,
   26.7145,       682,
    26.739,       700,
   26.7635,       715,
   26.7881,       690,
   26.8126,       738,
   26.8371,       753,
   26.8617,       714,
   26.8862,       726,
   26.9108,       695,
   26.9353,       739,
   26.9598,       735,
   26.9844,       797,
   27.0089,       762,
   27.0334,       710,
    27.058,       720,
   27.0825,       736,
    27.107,       720,
   27.1316,       728,
   27.1561,       727,
   27.1807,       746,
   27.2052,       710,
   27.2297,       703,
   27.2543,       698,
   27.2788,       720,
   27.3033,       687,
   27.3279,       697,
   27.3524,       681,
   27.3769,       677,
   27.4015,       672,
    27.426,       700,
   27.4506,       672,
   27.4751,       681,
   27.4996,       672,
   27.5242,       694,
   27.5487,       683,
   27.5732,       632,
   27.5978,       663,
   27.6223,       705,
   27.6468,       658,
   27.6714,       703,
   27.6959,       722,
   27.7204,       654,
    27.745,       738,
   27.7695,       675,
   27.7941,       672,
   27.8186,       663,
   27.8431,       675,
   27.8677,       766,
   27.8922,       723,
   27.9167,       701,
   27.9413,       680,
   27.9658,       685,
   27.9903,       725,
   28.0149,       694,
   28.0394,       695,
    28.064,       703,
   28.0885,       689,
    28.113,       654,
   28.1376,       709,
   28.1621,       649,
   28.1866,       700,
   28.2112,       737,
   28.2357,       702,
   28.2602,       654,
   28.2848,       664,
   28.3093,       704,
   28.3339,       656,
   28.3584,       675,
   28.3829,       722,
   28.4075,       716,
    28.432,       695,
   28.4565,       735,
   28.4811,       709,
   28.5056,       732,
   28.5301,       686,
   28.5547,       673,
   28.5792,       702,
   28.6037,       717,
   28.6283,       787,
   28.6528,       705,
   28.6774,       678,
   28.7019,       720,
   28.7264,       659,
    28.751,       709,
   28.7755,       704,
      28.8,       701,
   28.8246,       737,
   28.8491,       714,
   28.8736,       752,
   28.8982,       708,
   28.9227,       646,
   28.9473,       722,
   28.9718,       729,
   28.9963,       718,
   29.0209,       719,
   29.0454,       710,
   29.0699,       685,
   29.0945,       713,
    29.119,       635,
   29.1435,       718,
   29.1681,       668,
   29.1926,       678,
   29.2172,       654,
   29.2417,       632,
   29.2662,       673,
   29.2908,       652,
   29.3153,       652,
   29.3398,       676,
   29.3644,       640,
   29.3889,       684,
   29.4134,       686,
    29.438,       663,
   29.4625,       613,
    29.487,       656,
   29.5116,       629,
   29.5361,       664,
   29.5607,       688,
   29.5852,       611,
   29.6097,       636,
   29.6343,       656,
   29.6588,       653,
   29.6833,       676,
   29.7079,       628,
   29.7324,       668,
   29.7569,       643,
   29.7815,       703,
    29.806,       659,
   29.8306,       637,
   29.8551,       656,
   29.8796,       675,
   29.9042,       662,
   29.9287,       637,
   29.9532,       625,
   29.9778,       693,
   30.0023,       641,
   30.0268,       662,
   30.0514,       703,
   30.0759,       598,
   30.1005,       644,
    30.125,       690,
   30.1495,       675,
   30.1741,       672,
   30.1986,       709,
   30.2231,       717,
   30.2477,       715,
   30.2722,       658,
   30.2967,       698,
   30.3213,       650,
   30.3458,       707,
   30.3703,       680,
   30.3949,       666,
   30.4194,       705,
    30.444,       648,
   30.4685,       613,
    30.493,       620,
   30.5176,       670,
   30.5421,       661,
   30.5666,       689,
   30.5912,       659,
   30.6157,       649,
   30.6402,       660,
   30.6648,       652,
   30.6893,       621,
   30.7139,       657,
   30.7384,       704,
   30.7629,       659,
   30.7875,       685,
    30.812,       680,
   30.8365,       628,
   30.8611,       641,
   30.8856,       645,
   30.9101,       658,
   30.9347,       599,
   30.9592,       648,
   30.9838,       630,
   31.0083,       671,
   31.0328,       610,
   31.0574,       559,
   31.0819,       623,
   31.1064,       627,
    31.131,       641,
   31.1555,       586,
     31.18,       653,
   31.2046,       671,
   31.2291,       656,
   31.2536,       613,
   31.2782,       653,
   31.3027,       648,
   31.3273,       605,
   31.3518,       620,
   31.3763,       649,
   31.4009,       635,
   31.4254,       666,
   31.4499,       608,
   31.4745,       681,
    31.499,       629,
   31.5235,       653,
   31.5481,       629,
   31.5726,       652,
   31.5972,       680,
   31.6217,       655,
   31.6462,       651,
   31.6708,       628,
   31.6953,       610,
   31.7198,       643,
   31.7444,       679,
   31.7689,       617,
   31.7934,       638,
    31.818,       614,
   31.8425,       655,
   31.8671,       617,
   31.8916,       675,
   31.9161,       652,
   31.9407,       634,
   31.9652,       659,
   31.9897,       702,
   32.0143,       623,
   32.0388,       694,
   32.0633,       655,
   32.0879,       631,
   32.1124,       658,
   32.1369,       666,
   32.1615,       610,
    32.186,       631,
   32.2106,       629,
   32.2351,       603,
   32.2596,       658,
   32.2842,       631,
   32.3087,       587,
   32.3332,       625,
   32.3578,       634,
   32.3823,       604,
   32.4068,       621,
   32.4314,       608,
   32.4559,       625,
   32.4805,       605,
    32.505,       592,
   32.5295,       602,
   32.5541,       575,
   32.5786,       590,
   32.6031,       559,
   32.6277,       624,
   32.6522,       591,
   32.6767,       570,
   32.7013,       578,
   32.7258,       591,
   32.7504,       587,
   32.7749,       611,
   32.7994,       606,
    32.824,       573,
   32.8485,       585,
    32.873,       613,
   32.8976,       596,
   32.9221,       579,
   32.9466,       574,
   32.9712,       628,
   32.9957,       564,
   33.0203,       595,
   33.0448,       623,
   33.0693,       632,
   33.0939,       619,
   33.1184,       585,
   33.1429,       597,
   33.1675,       613,
    33.192,       592,
   33.2165,       587,
   33.2411,       592,
   33.2656,       556,
   33.2901,       581,
   33.3147,       615,
   33.3392,       599,
   33.3638,       670,
   33.3883,       626,
   33.4128,       611,
   33.4374,       621,
   33.4619,       577,
   33.4864,       603,
    33.511,       579,
   33.5355,       605,
     33.56,       600,
   33.5846,       561,
   33.6091,       538,
   33.6337,       616,
   33.6582,       575,
   33.6827,       542,
   33.7073,       594,
   33.7318,       549,
   33.7563,       575,
   33.7809,       628,
   33.8054,       568,
   33.8299,       603,
   33.8545,       592,
    33.879,       535,
   33.9036,       553,
   33.9281,       563,
   33.9526,       587,
   33.9772,       571,
   34.0017,       540,
   34.0262,       543,
   34.0508,       585,
   34.0753,       525,
   34.0998,       561,
   34.1244,       564,
   34.1489,       543,
   34.1734,       572,
    34.198,       552,
   34.2225,       543,
   34.2471,       550,
   34.2716,       580,
   34.2961,       547,
   34.3207,       570,
   34.3452,       565,
   34.3697,       510,
   34.3943,       538,
   34.4188,       553,
   34.4433,       544,
   34.4679,       579,
   34.4924,       554,
    34.517,       541,
   34.5415,       524,
    34.566,       521,
   34.5906,       555,
   34.6151,       597,
   34.6396,       555,
   34.6642,       540,
   34.6887,       537,
   34.7132,       579,
   34.7378,       563,
   34.7623,       559,
   34.7869,       545,
   34.8114,       568,
   34.8359,       578,
   34.8605,       551,
    34.885,       538,
   34.9095,       597,
   34.9341,       542,
   34.9586,       539,
   34.9831,       556,
   35.0077,       527,
   35.0322,       555,
   35.0567,       547,
   35.0813,       539,
   35.1058,       548,
   35.1304,       593,
   35.1549,       563,
   35.1794,       581,
    35.204,       523,
   35.2285,       556,
    35.253,       549,
   35.2776,       584,
   35.3021,       498,
   35.3266,       537,
   35.3512,       551,
   35.3757,       530,
   35.4003,       522,
   35.4248,       523,
   35.4493,       556,
   35.4739,       545,
   35.4984,       492,
   35.5229,       530,
   35.5475,       531,
    35.572,       480,
   35.5965,       535,
   35.6211,       516,
   35.6456,       514,
   35.6702,       523,
   35.6947,       529,
   35.7192,       528,
   35.7438,       511,
   35.7683,       521,
   35.7928,       529,
   35.8174,       560,
   35.8419,       510,
   35.8664,       510,
    35.891,       522,
   35.9155,       499,
     35.94,       588,
   35.9646,       525,
   35.9891,       569,
   36.0137,       580,
   36.0382,       499,
   36.0627,       525,
   36.0873,       477,
   36.1118,       539,
   36.1363,       513,
   36.1609,       531,
   36.1854,       480,
   36.2099,       508,
   36.2345,       505,
    36.259,       513,
   36.2836,       523,
   36.3081,       526,
   36.3326,       545,
   36.3572,       511,
   36.3817,       514,
   36.4062,       483,
   36.4308,       501,
   36.4553,       486,
   36.4798,       487,
   36.5044,       477,
   36.5289,       457,
   36.5535,       474,
    36.578,       452,
   36.6025,       506,
   36.6271,       537,
   36.6516,       466,
   36.6761,       515,
   36.7007,       458,
   36.7252,       483,
   36.7497,       433,
   36.7743,       476,
   36.7988,       464,
   36.8233,       475,
   36.8479,       492,
   36.8724,       471,
    36.897,       471,
   36.9215,       457,
    36.946,       451,
   36.9706,       439,
   36.9951,       488,
   37.0196,       418,
   37.0442,       427,
   37.0687,       452,
   37.0932,       455,
   37.1178,       443,
   37.1423,       446,
   37.1669,       463,
   37.1914,       426,
   37.2159,       477,
   37.2405,       462,
    37.265,       456,
   37.2895,       444,
   37.3141,       452,
   37.3386,       408,
   37.3631,       461,
   37.3877,       468,
   37.4122,       483,
   37.4368,       481,
   37.4613,       447,
   37.4858,       411,
   37.5104,       461,
   37.5349,       482,
   37.5594,       420,
    37.584,       431,
   37.6085,       444,
    37.633,       439,
   37.6576,       440,
   37.6821,       463,
   37.7066,       411,
   37.7312,       484,
   37.7557,       439,
   37.7803,       418,
   37.8048,       413,
   37.8293,       416,
   37.8539,       430,
   37.8784,       425,
   37.9029,       428,
   37.9275,       438,
    37.952,       449,
   37.9765,       385,
   38.0011,       437,
   38.0256,       410,
   38.0502,       379,
   38.0747,       413,
   38.0992,       456,
   38.1238,       451,
   38.1483,       421,
   38.1728,       419,
   38.1974,       439,
   38.2219,       422,
   38.2464,       398,
    38.271,       410,
   38.2955,       416,
   38.3201,       396,
   38.3446,       416,
   38.3691,       397,
   38.3937,       402,
   38.4182,       472,
   38.4427,       408,
   38.4673,       403,
   38.4918,       431,
   38.5163,       427,
   38.5409,       361,
   38.5654,       439,
   38.5899,       401,
   38.6145,       391,
    38.639,       427,
   38.6636,       391,
   38.6881,       396,
   38.7126,       413,
   38.7372,       418,
   38.7617,       395,
   38.7862,       427,
   38.8108,       385,
   38.8353,       411,
   38.8598,       390,
   38.8844,       410,
   38.9089,       439,
   38.9335,       454,
    38.958,       476,
   38.9825,       399,
   39.0071,       451,
   39.0316,       466,
   39.0561,       446,
   39.0807,       437,
   39.1052,       436,
   39.1297,       435,
   39.1543,       425,
   39.1788,       440,
   39.2034,       418,
   39.2279,       418,
   39.2524,       415,
    39.277,       424,
   39.3015,       424,
    39.326,       449,
   39.3506,       405,
   39.3751,       408,
   39.3996,       424,
   39.4242,       418,
   39.4487,       415,
   39.4732,       439,
   39.4978,       460,
   39.5223,       465,
   39.5469,       471,
   39.5714,       494,
   39.5959,       448,
   39.6205,       451,
    39.645,       438,
   39.6695,       430,
   39.6941,       484,
   39.7186,       458,
   39.7431,       449,
   39.7677,       472,
   39.7922,       443,
   39.8168,       471,
   39.8413,       426,
   39.8658,       475,
   39.8904,       402,
   39.9149,       443,
   39.9394,       412,
    39.964,       418,
   39.9885,       430,
