;RAW4.00
[RawHeader]
Date=01/17/2022
EstimatedTotalTime=633.79
FurtherDQLReading=0
HardwareIndicator=65519
MeasuredTotalTime=633.79
MeasurementFlag=1
NumberOfMeasuredRanges=1
NumberOfRanges=1
Time=11:33:45

[VarInfo]
Type=USER
Flags=0
Value=Lab Manager

[VarInfo]
Type=SAMPLEID
Flags=0
Value=

[VarInfo]
Type=COMMENT
Flags=0
Value=

[VarInfo]
Type=UTF
Flags=0
Value=

[VarInfo]
Type=CREATOR
Flags=0
Value=BrmlToV4Converter

[VarInfo]
Type=CREATOR_VERSION
Flags=0
Value=7.3.1.0

[HardwareConfiguration]
AbsorptionFactor=9999
ActivateAbsorber=0
Alpha1=0.7093
Alpha2=0.71359
AlphaAverage=0.71073
AlphaRatio=0.5
Analyzer=0
Anode=Mo
AntiScatteringSlit=18
BeamOpticsFlags=0
Beta=0.63229
BetaRelativeIntensity=0
DeactivateAbsorber=0
DetectorSlit=9999
DivergenceSlit=0.2
GoniometerControl=0
GoniometerDiameter=560
GoniometerModel=512
GoniometerStage=7
Monochromator=0
NearSampleSlit=9999
PrimarySollerSlit=2.5
SampleChanger=0
SecondSollerSlit=9999
SynchronousAxis=0
ThinFilmAttachment=9999
WaveUnit=A

[RangeHeader]
ActuallyUsedLambda=0.71073
AdditionalDetectorMask=257
DataRecordLength=4
DelayTime=0
DisplayPlaneNumber=0
EstimatedScanTime=634
ExtraParametersMask=0
GeneratorCurrent=40
GeneratorVoltage=50
Increment=0.0245361
Increment3=0
NumberOfCompletedData=1427
NumberOfCounts=1
NumberOfDetectors=0
NumberOfDrives=2
NumberOfEncoderDrives=0
NumberOfMeasuredData=1427
NumberOfVaryingParameters=0
RangeStartTime=0
RotationSpeed=60
ScanMode=1
ScanType=Locked Coupled
SimulatedMeasConditions=0
SlitChangerIn=0
SmootingWidth=0
Start=5
Steps=1427
SynchronousRotation=0
Time=76.8

[VarInfo]
Type=PSD_DISCRIM
Flags=0
Value=0.488;0.518

[PSD]
ActualTwoTheta=9999
FirstUsedChannel=0
FixedPSD=0
PSDOpening=2.94433
PSDType=5

[Drive]
DriveFlags=1
DriveName=2Theta
DriveNumber=2
DriveOffset=0
OffsetIndex=0
OscillationAmplitude=0
OscillationSpeed=0
StartPosition=5

[Drive]
DriveFlags=1
DriveName=Theta
DriveNumber=1
DriveOffset=0
OffsetIndex=0
OscillationAmplitude=0
OscillationSpeed=0
StartPosition=2.5

[Data]
     Angle,       PSD,
         5,       226,
   5.02454,       268,
   5.04907,       164,
   5.07361,       304,
   5.09814,       195,
   5.12268,       261,
   5.14722,       297,
   5.17175,       179,
   5.19629,       355,
   5.22083,       215,
   5.24536,       262,
    5.2699,       330,
   5.29443,       203,
   5.31897,       380,
   5.34351,       241,
   5.36804,       305,
   5.39258,       362,
   5.41711,       234,
   5.44165,       393,
   5.46619,       228,
   5.49072,       379,
   5.51526,       349,
   5.53979,       222,
   5.56433,       396,
   5.58887,       258,
    5.6134,       334,
   5.63794,       392,
   5.66248,       219,
   5.68701,       383,
   5.71155,       235,
   5.73608,       327,
   5.76062,       372,
   5.78516,       219,
   5.80969,       385,
   5.83423,       239,
   5.85876,       296,
    5.8833,       367,
   5.90784,       187,
   5.93237,       333,
   5.95691,       247,
   5.98144,       278,
   6.00598,       347,
   6.03052,       211,
   6.05505,       339,
   6.07959,       240,
   6.10413,       276,
   6.12866,       315,
    6.1532,       201,
   6.17773,       333,
   6.20227,       217,
   6.22681,       285,
   6.25134,       304,
   6.27588,       167,
   6.30041,       287,
   6.32495,       188,
   6.34949,       244,
   6.37402,       304,
   6.39856,       185,
    6.4231,       320,
   6.44763,       199,
   6.47217,       237,
    6.4967,       281,
   6.52124,       168,
   6.54578,       274,
   6.57031,       168,
   6.59485,       210,
   6.61938,       268,
   6.64392,       158,
   6.66846,       274,
   6.69299,       189,
   6.71753,       241,
   6.74206,       256,
    6.7666,       140,
   6.79114,       282,
   6.81567,       169,
   6.84021,       235,
   6.86475,       238,
   6.88928,       132,
   6.91382,       290,
   6.93835,       160,
   6.96289,       212,
   6.98743,       256,
   7.01196,       164,
    7.0365,       268,
   7.06103,       171,
   7.08557,       235,
   7.11011,       242,
   7.13464,       177,
   7.15918,       254,
   7.18371,       185,
   7.20825,       244,
   7.23279,       232,
   7.25732,       156,
   7.28186,       257,
    7.3064,       185,
   7.33093,       183,
   7.35547,       252,
      7.38,       144,
   7.40454,       218,
   7.42908,       201,
   7.45361,       245,
   7.47815,       239,
   7.50268,       158,
   7.52722,       271,
   7.55176,       177,
   7.57629,       193,
   7.60083,       213,
   7.62536,       146,
    7.6499,       247,
   7.67444,       165,
   7.69897,       193,
   7.72351,       233,
   7.74805,       174,
   7.77258,       268,
   7.79712,       181,
   7.82165,       215,
   7.84619,       240,
   7.87073,       147,
   7.89526,       254,
    7.9198,       184,
   7.94433,       231,
   7.96887,       258,
   7.99341,       182,
   8.01794,       270,
   8.04248,       174,
   8.06702,       231,
   8.09155,       254,
   8.11609,       178,
   8.14062,       278,
   8.16516,       204,
    8.1897,       228,
   8.21423,       254,
   8.23877,       201,
    8.2633,       275,
   8.28784,       192,
   8.31238,       256,
   8.33691,       286,
   8.36145,       186,
   8.38598,       290,
   8.41052,       217,
   8.43506,       255,
   8.45959,       281,
   8.48413,       194,
   8.50867,       271,
    8.5332,       198,
   8.55774,       274,
   8.58227,       282,
   8.60681,       203,
   8.63135,       289,
   8.65588,       223,
   8.68042,       283,
   8.70495,       301,
   8.72949,       231,
   8.75403,       340,
   8.77856,       267,
    8.8031,       320,
   8.82763,       323,
   8.85217,       280,
   8.87671,       412,
   8.90124,       301,
   8.92578,       352,
   8.95032,       421,
   8.97485,       312,
   8.99939,       386,
   9.02392,       351,
   9.04846,       377,
     9.073,       431,
   9.09753,       364,
   9.12207,       462,
    9.1466,       420,
   9.17114,       413,
   9.19568,       479,
   9.22021,       450,
   9.24475,       524,
   9.26929,       442,
   9.29382,       524,
   9.31836,       528,
   9.34289,       480,
   9.36743,       560,
   9.39197,       508,
    9.4165,       538,
   9.44104,       654,
   9.46557,       619,
   9.49011,       630,
   9.51465,       595,
   9.53918,       635,
   9.56372,       650,
   9.58825,       650,
   9.61279,       749,
   9.63733,       709,
   9.66186,       733,
    9.6864,       795,
   9.71094,       835,
   9.73547,       930,
   9.76001,       831,
   9.78454,       860,
   9.80908,       875,
   9.83362,       771,
   9.85815,       833,
   9.88269,       831,
   9.90722,       812,
   9.93176,       899,
    9.9563,       791,
   9.98083,       868,
   10.0054,       858,
   10.0299,       867,
   10.0544,       893,
    10.079,       883,
   10.1035,       887,
    10.128,       899,
   10.1526,       938,
   10.1771,       942,
   10.2017,       945,
   10.2262,       944,
   10.2507,       981,
   10.2753,       977,
   10.2998,      1011,
   10.3243,      1015,
   10.3489,      1024,
   10.3734,      1033,
   10.3979,      1013,
   10.4225,       995,
    10.447,      1035,
   10.4716,      1097,
   10.4961,      1039,
   10.5206,      1112,
   10.5452,      1092,
   10.5697,      1037,
   10.5942,      1155,
   10.6188,      1107,
   10.6433,      1144,
   10.6678,      1202,
   10.6924,      1209,
   10.7169,      1107,
   10.7415,      1181,
    10.766,      1191,
   10.7905,      1219,
   10.8151,      1177,
   10.8396,      1174,
   10.8641,      1207,
   10.8887,      1141,
   10.9132,      1113,
   10.9377,      1164,
   10.9623,      1134,
   10.9868,      1185,
   11.0113,      1171,
   11.0359,      1221,
   11.0604,      1193,
    11.085,      1205,
   11.1095,      1216,
    11.134,      1286,
   11.1586,      1223,
   11.1831,      1286,
   11.2076,      1264,
   11.2322,      1269,
   11.2567,      1294,
   11.2812,      1241,
   11.3058,      1309,
   11.3303,      1321,
   11.3549,      1365,
   11.3794,      1456,
   11.4039,      1480,
   11.4285,      1567,
    11.453,      1735,
   11.4775,      1886,
   11.5021,      2038,
   11.5266,      2057,
   11.5511,      1913,
   11.5757,      1795,
   11.6002,      1706,
   11.6248,      1586,
   11.6493,      1508,
   11.6738,      1438,
   11.6984,      1278,
   11.7229,      1316,
   11.7474,      1336,
    11.772,      1343,
   11.7965,      1251,
    11.821,      1296,
   11.8456,      1307,
   11.8701,      1300,
   11.8946,      1286,
   11.9192,      1260,
   11.9437,      1341,
   11.9683,      1217,
   11.9928,      1268,
   12.0173,      1267,
   12.0419,      1348,
   12.0664,      1351,
   12.0909,      1309,
   12.1155,      1280,
     12.14,      1231,
   12.1645,      1283,
   12.1891,      1269,
   12.2136,      1302,
   12.2382,      1282,
   12.2627,      1342,
   12.2872,      1440,
   12.3118,      1368,
   12.3363,      1437,
   12.3608,      1551,
   12.3854,      1601,
   12.4099,      1856,
   12.4344,      1993,
    12.459,      2217,
   12.4835,      2365,
   12.5081,      2426,
   12.5326,      2307,
   12.5571,      2167,
   12.5817,      1943,
   12.6062,      1841,
   12.6307,      1694,
   12.6553,      1455,
   12.6798,      1384,
   12.7043,      1314,
   12.7289,      1304,
   12.7534,      1267,
    12.778,      1217,
   12.8025,      1216,
    12.827,      1144,
   12.8516,      1253,
   12.8761,      1210,
   12.9006,      1178,
   12.9252,      1159,
   12.9497,      1214,
   12.9742,      1194,
   12.9988,      1149,
   13.0233,      1189,
   13.0478,      1145,
   13.0724,      1170,
   13.0969,      1109,
   13.1215,      1151,
    13.146,      1149,
   13.1705,      1133,
   13.1951,      1152,
   13.2196,      1071,
   13.2441,      1116,
   13.2687,      1106,
   13.2932,      1153,
   13.3177,      1126,
   13.3423,      1117,
   13.3668,      1166,
   13.3914,      1201,
   13.4159,      1233,
   13.4404,      1216,
    13.465,      1208,
   13.4895,      1363,
    13.514,      1527,
   13.5386,      1924,
   13.5631,      1870,
   13.5876,      1785,
   13.6122,      1639,
   13.6367,      1519,
   13.6613,      1391,
   13.6858,      1287,
   13.7103,      1167,
   13.7349,      1093,
   13.7594,      1074,
   13.7839,      1059,
   13.8085,      1090,
    13.833,      1057,
   13.8575,      1061,
   13.8821,       994,
   13.9066,      1073,
   13.9311,       970,
   13.9557,      1066,
   13.9802,      1065,
   14.0048,      1017,
   14.0293,      1039,
   14.0538,      1030,
   14.0784,      1034,
   14.1029,      1008,
   14.1274,      1012,
    14.152,      1072,
   14.1765,      1014,
    14.201,       959,
   14.2256,       962,
   14.2501,       973,
   14.2747,       962,
   14.2992,      1042,
   14.3237,      1039,
   14.3483,       998,
   14.3728,       995,
   14.3973,       982,
   14.4219,       946,
   14.4464,      1036,
   14.4709,      1022,
   14.4955,      1008,
     14.52,       936,
   14.5446,      1024,
   14.5691,       952,
   14.5936,       983,
   14.6182,       946,
   14.6427,       966,
   14.6672,       989,
   14.6918,       966,
   14.7163,       933,
   14.7408,       954,
   14.7654,      1028,
   14.7899,      1035,
   14.8144,       982,
    14.839,       971,
   14.8635,      1017,
   14.8881,      1111,
   14.9126,      1178,
   14.9371,      1246,
   14.9617,      1431,
   14.9862,      1524,
   15.0107,      1648,
   15.0353,      1864,
   15.0598,      1935,
   15.0843,      1895,
   15.1089,      1823,
   15.1334,      1693,
    15.158,      1604,
   15.1825,      1450,
    15.207,      1331,
   15.2316,      1216,
   15.2561,      1040,
   15.2806,      1059,
   15.3052,       947,
   15.3297,       988,
   15.3542,       984,
   15.3788,       961,
   15.4033,       964,
   15.4279,       864,
   15.4524,       870,
   15.4769,       920,
   15.5015,       885,
    15.526,       851,
   15.5505,       805,
   15.5751,       828,
   15.5996,       865,
   15.6241,       838,
   15.6487,       847,
   15.6732,       857,
   15.6977,       860,
   15.7223,       859,
   15.7468,       783,
   15.7714,       829,
   15.7959,       836,
   15.8204,       792,
    15.845,       753,
   15.8695,       786,
    15.894,       800,
   15.9186,       794,
   15.9431,       804,
   15.9676,       777,
   15.9922,       803,
   16.0167,       745,
   16.0413,       749,
   16.0658,       737,
   16.0903,       739,
   16.1149,       802,
   16.1394,       728,
   16.1639,       791,
   16.1885,       796,
    16.213,       797,
   16.2375,       757,
   16.2621,       739,
   16.2866,       727,
   16.3112,       724,
   16.3357,       739,
   16.3602,       788,
   16.3848,       735,
   16.4093,       761,
   16.4338,       774,
   16.4584,       860,
   16.4829,       799,
   16.5074,       839,
    16.532,       794,
   16.5565,       792,
    16.581,       736,
   16.6056,       749,
   16.6301,       736,
   16.6547,       717,
   16.6792,       718,
   16.7037,       730,
   16.7283,       701,
   16.7528,       748,
   16.7773,       712,
   16.8019,       646,
   16.8264,       693,
   16.8509,       729,
   16.8755,       701,
      16.9,       724,
   16.9246,       727,
   16.9491,       707,
   16.9736,       694,
   16.9982,       716,
   17.0227,       669,
   17.0472,       648,
   17.0718,       628,
   17.0963,       654,
   17.1208,       682,
   17.1454,       674,
   17.1699,       666,
   17.1945,       652,
    17.219,       687,
   17.2435,       674,
   17.2681,       716,
   17.2926,       668,
   17.3171,       706,
   17.3417,       635,
   17.3662,       663,
   17.3907,       667,
   17.4153,       681,
   17.4398,       682,
   17.4643,       684,
   17.4889,       699,
   17.5134,       643,
    17.538,       702,
   17.5625,       716,
    17.587,       659,
   17.6116,       715,
   17.6361,       686,
   17.6606,       694,
   17.6852,       704,
   17.7097,       766,
   17.7342,       730,
   17.7588,       771,
   17.7833,       740,
   17.8079,       760,
   17.8324,       771,
   17.8569,       748,
   17.8815,       801,
    17.906,       734,
   17.9305,       804,
   17.9551,       809,
   17.9796,       832,
   18.0041,       913,
   18.0287,       881,
   18.0532,       809,
   18.0778,       778,
   18.1023,       821,
   18.1268,       775,
   18.1514,       714,
   18.1759,       680,
   18.2004,       741,
    18.225,       713,
   18.2495,       719,
    18.274,       724,
   18.2986,       637,
   18.3231,       666,
   18.3476,       662,
   18.3722,       731,
   18.3967,       720,
   18.4213,       684,
   18.4458,       706,
   18.4703,       690,
   18.4949,       696,
   18.5194,       666,
   18.5439,       717,
   18.5685,       707,
    18.593,       729,
   18.6175,       683,
   18.6421,       663,
   18.6666,       709,
   18.6912,       689,
   18.7157,       699,
   18.7402,       640,
   18.7648,       671,
   18.7893,       662,
   18.8138,       652,
   18.8384,       613,
   18.8629,       694,
   18.8874,       733,
    18.912,       677,
   18.9365,       677,
   18.9611,       718,
   18.9856,       681,
   19.0101,       723,
   19.0347,       649,
   19.0592,       678,
   19.0837,       701,
   19.1083,       652,
   19.1328,       681,
   19.1573,       681,
   19.1819,       692,
   19.2064,       672,
    19.231,       676,
   19.2555,       692,
     19.28,       699,
   19.3046,       634,
   19.3291,       689,
   19.3536,       709,
   19.3782,       779,
   19.4027,       758,
   19.4272,       827,
   19.4518,       778,
   19.4763,       739,
   19.5008,       776,
   19.5254,       779,
   19.5499,       779,
   19.5745,       796,
    19.599,       787,
   19.6235,       813,
   19.6481,       842,
   19.6726,       809,
   19.6971,       819,
   19.7217,       799,
   19.7462,       872,
   19.7707,       901,
   19.7953,       912,
   19.8198,       951,
   19.8444,      1020,
   19.8689,      1163,
   19.8934,      1199,
    19.918,      1220,
   19.9425,      1244,
    19.967,      1232,
   19.9916,      1164,
   20.0161,      1087,
   20.0406,      1057,
   20.0652,       986,
   20.0897,       930,
   20.1143,       854,
   20.1388,       837,
   20.1633,       757,
   20.1879,       732,
   20.2124,       698,
   20.2369,       703,
   20.2615,       726,
    20.286,       715,
   20.3105,       660,
   20.3351,       691,
   20.3596,       661,
   20.3841,       622,
   20.4087,       689,
   20.4332,       610,
   20.4578,       670,
   20.4823,       664,
   20.5068,       675,
   20.5314,       693,
   20.5559,       652,
   20.5804,       663,
    20.605,       633,
   20.6295,       670,
    20.654,       640,
   20.6786,       620,
   20.7031,       663,
   20.7277,       671,
   20.7522,       634,
   20.7767,       617,
   20.8013,       648,
   20.8258,       626,
   20.8503,       659,
   20.8749,       598,
   20.8994,       644,
   20.9239,       655,
   20.9485,       632,
    20.973,       646,
   20.9976,       644,
   21.0221,       609,
   21.0466,       678,
   21.0712,       659,
   21.0957,       646,
   21.1202,       651,
   21.1448,       646,
   21.1693,       678,
   21.1938,       675,
   21.2184,       631,
   21.2429,       684,
   21.2674,       657,
    21.292,       698,
   21.3165,       708,
   21.3411,       783,
   21.3656,       751,
   21.3901,       763,
   21.4147,       715,
   21.4392,       676,
   21.4637,       754,
   21.4883,       778,
   21.5128,       855,
   21.5373,       747,
   21.5619,       753,
   21.5864,       679,
    21.611,       685,
   21.6355,       677,
     21.66,       666,
   21.6846,       709,
   21.7091,       681,
   21.7336,       698,
   21.7582,       726,
   21.7827,       720,
   21.8072,       727,
   21.8318,       660,
   21.8563,       679,
   21.8809,       744,
   21.9054,       695,
   21.9299,       829,
   21.9545,       859,
    21.979,       746,
   22.0035,       785,
   22.0281,       743,
   22.0526,       763,
   22.0771,       858,
   22.1017,       843,
   22.1262,       827,
   22.1507,       833,
   22.1753,       816,
   22.1998,       823,
   22.2244,       810,
   22.2489,       788,
   22.2734,       766,
    22.298,       780,
   22.3225,       767,
    22.347,       799,
   22.3716,       804,
   22.3961,       767,
   22.4206,       746,
   22.4452,       789,
   22.4697,       796,
   22.4943,       873,
   22.5188,       949,
   22.5433,       965,
   22.5679,      1051,
   22.5924,      1051,
   22.6169,      1082,
   22.6415,      1063,
    22.666,      1009,
   22.6905,      1020,
   22.7151,       938,
   22.7396,       925,
   22.7642,       913,
   22.7887,       830,
   22.8132,       792,
   22.8378,       756,
   22.8623,       735,
   22.8868,       691,
   22.9114,       684,
   22.9359,       644,
   22.9604,       659,
    22.985,       689,
   23.0095,       690,
    23.034,       583,
   23.0586,       659,
   23.0831,       594,
   23.1077,       630,
   23.1322,       597,
   23.1567,       692,
   23.1813,       616,
   23.2058,       624,
   23.2303,       540,
   23.2549,       636,
   23.2794,       608,
   23.3039,       593,
   23.3285,       610,
    23.353,       640,
   23.3776,       646,
   23.4021,       617,
   23.4266,       656,
   23.4512,       649,
   23.4757,       606,
   23.5002,       635,
   23.5248,       615,
   23.5493,       659,
   23.5738,       595,
   23.5984,       645,
   23.6229,       604,
   23.6475,       568,
    23.672,       635,
   23.6965,       598,
   23.7211,       619,
   23.7456,       595,
   23.7701,       625,
   23.7947,       587,
   23.8192,       622,
   23.8437,       558,
   23.8683,       590,
   23.8928,       625,
   23.9173,       561,
   23.9419,       586,
   23.9664,       594,
    23.991,       650,
   24.0155,       615,
     24.04,       621,
   24.0646,       627,
   24.0891,       586,
   24.1136,       624,
   24.1382,       609,
   24.1627,       608,
   24.1872,       607,
   24.2118,       618,
   24.2363,       622,
   24.2609,       638,
   24.2854,       659,
   24.3099,       651,
   24.3345,       561,
    24.359,       611,
   24.3835,       596,
   24.4081,       635,
   24.4326,       654,
   24.4571,       620,
   24.4817,       609,
   24.5062,       599,
   24.5308,       655,
   24.5553,       651,
   24.5798,       607,
   24.6044,       628,
   24.6289,       596,
   24.6534,       633,
    24.678,       690,
   24.7025,       651,
    24.727,       672,
   24.7516,       611,
   24.7761,       641,
   24.8006,       671,
   24.8252,       700,
   24.8497,       657,
   24.8743,       681,
   24.8988,       702,
   24.9233,       703,
   24.9479,       765,
   24.9724,       741,
   24.9969,       750,
   25.0215,       745,
    25.046,       782,
   25.0705,       771,
   25.0951,       780,
   25.1196,       729,
   25.1442,       823,
   25.1687,       739,
   25.1932,       752,
   25.2178,       685,
   25.2423,       695,
   25.2668,       687,
   25.2914,       646,
   25.3159,       636,
   25.3404,       705,
    25.365,       673,
   25.3895,       670,
   25.4141,       607,
   25.4386,       669,
   25.4631,       681,
   25.4877,       674,
   25.5122,       631,
   25.5367,       678,
   25.5613,       641,
   25.5858,       627,
   25.6103,       659,
   25.6349,       640,
   25.6594,       707,
   25.6839,       733,
   25.7085,       749,
    25.733,       667,
   25.7576,       682,
   25.7821,       718,
   25.8066,       666,
   25.8312,       660,
   25.8557,       663,
   25.8802,       663,
   25.9048,       669,
   25.9293,       622,
   25.9538,       665,
   25.9784,       639,
   26.0029,       690,
   26.0275,       646,
    26.052,       644,
   26.0765,       655,
   26.1011,       610,
   26.1256,       631,
   26.1501,       645,
   26.1747,       645,
   26.1992,       609,
   26.2237,       639,
   26.2483,       650,
   26.2728,       618,
   26.2974,       590,
   26.3219,       613,
   26.3464,       654,
    26.371,       638,
   26.3955,       605,
     26.42,       612,
   26.4446,       632,
   26.4691,       661,
   26.4936,       649,
   26.5182,       634,
   26.5427,       639,
   26.5673,       641,
   26.5918,       683,
   26.6163,       679,
   26.6409,       625,
   26.6654,       702,
   26.6899,       679,
   26.7145,       641,
    26.739,       715,
   26.7635,       678,
   26.7881,       726,
   26.8126,       700,
   26.8371,       711,
   26.8617,       662,
   26.8862,       712,
   26.9108,       693,
   26.9353,       699,
   26.9598,       669,
   26.9844,       698,
   27.0089,       710,
   27.0334,       723,
    27.058,       751,
   27.0825,       698,
    27.107,       689,
   27.1316,       705,
   27.1561,       718,
   27.1807,       738,
   27.2052,       761,
   27.2297,       692,
   27.2543,       710,
   27.2788,       679,
   27.3033,       715,
   27.3279,       721,
   27.3524,       709,
   27.3769,       637,
   27.4015,       650,
    27.426,       644,
   27.4506,       635,
   27.4751,       693,
   27.4996,       652,
   27.5242,       644,
   27.5487,       666,
   27.5732,       662,
   27.5978,       646,
   27.6223,       694,
   27.6468,       645,
   27.6714,       651,
   27.6959,       626,
   27.7204,       667,
    27.745,       683,
   27.7695,       679,
   27.7941,       647,
   27.8186,       666,
   27.8431,       658,
   27.8677,       661,
   27.8922,       679,
   27.9167,       697,
   27.9413,       685,
   27.9658,       685,
   27.9903,       644,
   28.0149,       725,
   28.0394,       679,
    28.064,       671,
   28.0885,       698,
    28.113,       656,
   28.1376,       677,
   28.1621,       630,
   28.1866,       652,
   28.2112,       674,
   28.2357,       603,
   28.2602,       655,
   28.2848,       655,
   28.3093,       688,
   28.3339,       652,
   28.3584,       674,
   28.3829,       649,
   28.4075,       715,
    28.432,       643,
   28.4565,       697,
   28.4811,       664,
   28.5056,       651,
   28.5301,       670,
   28.5547,       658,
   28.5792,       697,
   28.6037,       669,
   28.6283,       639,
   28.6528,       695,
   28.6774,       735,
   28.7019,       649,
   28.7264,       625,
    28.751,       677,
   28.7755,       673,
      28.8,       670,
   28.8246,       736,
   28.8491,       699,
   28.8736,       725,
   28.8982,       663,
   28.9227,       702,
   28.9473,       609,
   28.9718,       646,
   28.9963,       696,
   29.0209,       686,
   29.0454,       649,
   29.0699,       673,
   29.0945,       646,
    29.119,       636,
   29.1435,       626,
   29.1681,       626,
   29.1926,       611,
   29.2172,       686,
   29.2417,       626,
   29.2662,       669,
   29.2908,       618,
   29.3153,       584,
   29.3398,       597,
   29.3644,       657,
   29.3889,       645,
   29.4134,       642,
    29.438,       627,
   29.4625,       609,
    29.487,       614,
   29.5116,       601,
   29.5361,       644,
   29.5607,       581,
   29.5852,       662,
   29.6097,       654,
   29.6343,       609,
   29.6588,       669,
   29.6833,       630,
   29.7079,       644,
   29.7324,       611,
   29.7569,       625,
   29.7815,       635,
    29.806,       600,
   29.8306,       616,
   29.8551,       636,
   29.8796,       606,
   29.9042,       664,
   29.9287,       617,
   29.9532,       594,
   29.9778,       651,
   30.0023,       628,
   30.0268,       624,
   30.0514,       642,
   30.0759,       626,
   30.1005,       614,
    30.125,       646,
   30.1495,       622,
   30.1741,       612,
   30.1986,       629,
   30.2231,       651,
   30.2477,       649,
   30.2722,       690,
   30.2967,       615,
   30.3213,       660,
   30.3458,       625,
   30.3703,       648,
   30.3949,       635,
   30.4194,       651,
    30.444,       643,
   30.4685,       637,
    30.493,       632,
   30.5176,       668,
   30.5421,       620,
   30.5666,       607,
   30.5912,       637,
   30.6157,       628,
   30.6402,       640,
   30.6648,       656,
   30.6893,       638,
   30.7139,       630,
   30.7384,       652,
   30.7629,       621,
   30.7875,       637,
    30.812,       595,
   30.8365,       638,
   30.8611,       571,
   30.8856,       648,
   30.9101,       640,
   30.9347,       586,
   30.9592,       592,
   30.9838,       609,
   31.0083,       595,
   31.0328,       634,
   31.0574,       596,
   31.0819,       641,
   31.1064,       631,
    31.131,       591,
   31.1555,       649,
     31.18,       613,
   31.2046,       545,
   31.2291,       618,
   31.2536,       574,
   31.2782,       619,
   31.3027,       587,
   31.3273,       586,
   31.3518,       587,
   31.3763,       623,
   31.4009,       583,
   31.4254,       614,
   31.4499,       603,
   31.4745,       658,
    31.499,       625,
   31.5235,       616,
   31.5481,       582,
   31.5726,       622,
   31.5972,       653,
   31.6217,       649,
   31.6462,       641,
   31.6708,       602,
   31.6953,       665,
   31.7198,       612,
   31.7444,       624,
   31.7689,       634,
   31.7934,       615,
    31.818,       586,
   31.8425,       597,
   31.8671,       574,
   31.8916,       594,
   31.9161,       626,
   31.9407,       653,
   31.9652,       620,
   31.9897,       614,
   32.0143,       652,
   32.0388,       668,
   32.0633,       634,
   32.0879,       667,
   32.1124,       635,
   32.1369,       665,
   32.1615,       620,
    32.186,       633,
   32.2106,       629,
   32.2351,       602,
   32.2596,       611,
   32.2842,       616,
   32.3087,       651,
   32.3332,       618,
   32.3578,       585,
   32.3823,       598,
   32.4068,       607,
   32.4314,       613,
   32.4559,       578,
   32.4805,       579,
    32.505,       579,
   32.5295,       563,
   32.5541,       570,
   32.5786,       580,
   32.6031,       530,
   32.6277,       564,
   32.6522,       596,
   32.6767,       572,
   32.7013,       560,
   32.7258,       573,
   32.7504,       553,
   32.7749,       575,
   32.7994,       553,
    32.824,       582,
   32.8485,       549,
    32.873,       550,
   32.8976,       537,
   32.9221,       557,
   32.9466,       525,
   32.9712,       547,
   32.9957,       577,
   33.0203,       551,
   33.0448,       546,
   33.0693,       554,
   33.0939,       568,
   33.1184,       562,
   33.1429,       566,
   33.1675,       572,
    33.192,       560,
   33.2165,       572,
   33.2411,       557,
   33.2656,       585,
   33.2901,       546,
   33.3147,       565,
   33.3392,       567,
   33.3638,       547,
   33.3883,       597,
   33.4128,       616,
   33.4374,       527,
   33.4619,       580,
   33.4864,       570,
    33.511,       573,
   33.5355,       570,
     33.56,       536,
   33.5846,       606,
   33.6091,       537,
   33.6337,       568,
   33.6582,       505,
   33.6827,       534,
   33.7073,       503,
   33.7318,       508,
   33.7563,       508,
   33.7809,       565,
   33.8054,       519,
   33.8299,       565,
   33.8545,       531,
    33.879,       543,
   33.9036,       518,
   33.9281,       543,
   33.9526,       507,
   33.9772,       547,
   34.0017,       539,
   34.0262,       513,
   34.0508,       486,
   34.0753,       547,
   34.0998,       533,
   34.1244,       517,
   34.1489,       503,
   34.1734,       531,
    34.198,       531,
   34.2225,       486,
   34.2471,       531,
   34.2716,       530,
   34.2961,       527,
   34.3207,       504,
   34.3452,       513,
   34.3697,       495,
   34.3943,       520,
   34.4188,       512,
   34.4433,       481,
   34.4679,       508,
   34.4924,       516,
    34.517,       554,
   34.5415,       519,
    34.566,       537,
   34.5906,       457,
   34.6151,       523,
   34.6396,       529,
   34.6642,       492,
   34.6887,       520,
   34.7132,       515,
   34.7378,       507,
   34.7623,       501,
   34.7869,       484,
   34.8114,       543,
   34.8359,       526,
   34.8605,       536,
    34.885,       504,
   34.9095,       512,
   34.9341,       570,
   34.9586,       565,
   34.9831,       541,
   35.0077,       533,
   35.0322,       544,
   35.0567,       566,
   35.0813,       503,
   35.1058,       585,
   35.1304,       504,
   35.1549,       537,
   35.1794,       492,
    35.204,       501,
   35.2285,       522,
    35.253,       541,
   35.2776,       493,
   35.3021,       482,
   35.3266,       490,
   35.3512,       509,
   35.3757,       491,
   35.4003,       525,
   35.4248,       520,
   35.4493,       494,
   35.4739,       480,
   35.4984,       503,
   35.5229,       518,
   35.5475,       498,
    35.572,       503,
   35.5965,       489,
   35.6211,       493,
   35.6456,       510,
   35.6702,       516,
   35.6947,       472,
   35.7192,       524,
   35.7438,       529,
   35.7683,       505,
   35.7928,       493,
   35.8174,       515,
   35.8419,       537,
   35.8664,       512,
    35.891,       517,
   35.9155,       482,
     35.94,       512,
   35.9646,       513,
   35.9891,       503,
   36.0137,       506,
   36.0382,       511,
   36.0627,       500,
   36.0873,       517,
   36.1118,       497,
   36.1363,       511,
   36.1609,       560,
   36.1854,       503,
   36.2099,       515,
   36.2345,       483,
    36.259,       483,
   36.2836,       506,
   36.3081,       509,
   36.3326,       458,
   36.3572,       475,
   36.3817,       485,
   36.4062,       478,
   36.4308,       484,
   36.4553,       464,
   36.4798,       493,
   36.5044,       474,
   36.5289,       494,
   36.5535,       496,
    36.578,       445,
   36.6025,       484,
   36.6271,       434,
   36.6516,       476,
   36.6761,       462,
   36.7007,       486,
   36.7252,       415,
   36.7497,       467,
   36.7743,       419,
   36.7988,       413,
   36.8233,       454,
   36.8479,       407,
   36.8724,       440,
    36.897,       456,
   36.9215,       402,
    36.946,       402,
   36.9706,       361,
   36.9951,       441,
   37.0196,       404,
   37.0442,       449,
   37.0687,       407,
   37.0932,       411,
   37.1178,       424,
   37.1423,       429,
   37.1669,       455,
   37.1914,       428,
   37.2159,       419,
   37.2405,       457,
    37.265,       433,
   37.2895,       376,
   37.3141,       379,
   37.3386,       445,
   37.3631,       443,
   37.3877,       414,
   37.4122,       429,
   37.4368,       412,
   37.4613,       453,
   37.4858,       407,
   37.5104,       435,
   37.5349,       426,
   37.5594,       419,
    37.584,       436,
   37.6085,       430,
    37.633,       427,
   37.6576,       460,
   37.6821,       416,
   37.7066,       407,
   37.7312,       404,
   37.7557,       424,
   37.7803,       433,
   37.8048,       405,
   37.8293,       441,
   37.8539,       419,
   37.8784,       397,
   37.9029,       452,
   37.9275,       367,
    37.952,       389,
   37.9765,       382,
   38.0011,       418,
   38.0256,       418,
   38.0502,       396,
   38.0747,       420,
   38.0992,       385,
   38.1238,       390,
   38.1483,       383,
   38.1728,       399,
   38.1974,       384,
   38.2219,       383,
   38.2464,       423,
    38.271,       355,
   38.2955,       375,
   38.3201,       383,
   38.3446,       413,
   38.3691,       395,
   38.3937,       425,
   38.4182,       378,
   38.4427,       378,
   38.4673,       386,
   38.4918,       396,
   38.5163,       375,
   38.5409,       380,
   38.5654,       357,
   38.5899,       390,
   38.6145,       403,
    38.639,       360,
   38.6636,       389,
   38.6881,       358,
   38.7126,       392,
   38.7372,       390,
   38.7617,       377,
   38.7862,       385,
   38.8108,       403,
   38.8353,       404,
   38.8598,       367,
   38.8844,       396,
   38.9089,       405,
   38.9335,       352,
    38.958,       406,
   38.9825,       417,
   39.0071,       378,
   39.0316,       373,
   39.0561,       423,
   39.0807,       399,
   39.1052,       392,
   39.1297,       385,
   39.1543,       399,
   39.1788,       415,
   39.2034,       386,
   39.2279,       409,
   39.2524,       390,
    39.277,       380,
   39.3015,       415,
    39.326,       390,
   39.3506,       382,
   39.3751,       380,
   39.3996,       387,
   39.4242,       402,
   39.4487,       400,
   39.4732,       419,
   39.4978,       467,
   39.5223,       417,
   39.5469,       423,
   39.5714,       430,
   39.5959,       436,
   39.6205,       430,
    39.645,       433,
   39.6695,       435,
   39.6941,       416,
   39.7186,       401,
   39.7431,       401,
   39.7677,       476,
   39.7922,       431,
   39.8168,       417,
   39.8413,       425,
   39.8658,       447,
   39.8904,       409,
   39.9149,       429,
   39.9394,       401,
    39.964,       378,
   39.9885,       391,
