;RAW4.00
[RawHeader]
Date=01/17/2022
EstimatedTotalTime=633.968
FurtherDQLReading=0
HardwareIndicator=65519
MeasuredTotalTime=633.968
MeasurementFlag=1
NumberOfMeasuredRanges=1
NumberOfRanges=1
Time=11:47:30

[VarInfo]
Type=USER
Flags=0
Value=Lab Manager

[VarInfo]
Type=SAMPLEID
Flags=0
Value=

[VarInfo]
Type=COMMENT
Flags=0
Value=

[VarInfo]
Type=UTF
Flags=0
Value=

[VarInfo]
Type=CREATOR
Flags=0
Value=BrmlToV4Converter

[VarInfo]
Type=CREATOR_VERSION
Flags=0
Value=7.3.1.0

[HardwareConfiguration]
AbsorptionFactor=9999
ActivateAbsorber=0
Alpha1=0.7093
Alpha2=0.71359
AlphaAverage=0.71073
AlphaRatio=0.5
Analyzer=0
Anode=Mo
AntiScatteringSlit=18
BeamOpticsFlags=0
Beta=0.63229
BetaRelativeIntensity=0
DeactivateAbsorber=0
DetectorSlit=9999
DivergenceSlit=0.2
GoniometerControl=0
GoniometerDiameter=560
GoniometerModel=512
GoniometerStage=7
Monochromator=0
NearSampleSlit=9999
PrimarySollerSlit=2.5
SampleChanger=0
SecondSollerSlit=9999
SynchronousAxis=0
ThinFilmAttachment=9999
WaveUnit=A

[RangeHeader]
ActuallyUsedLambda=0.71073
AdditionalDetectorMask=257
DataRecordLength=4
DelayTime=0
DisplayPlaneNumber=0
EstimatedScanTime=634
ExtraParametersMask=0
GeneratorCurrent=40
GeneratorVoltage=50
Increment=0.0245361
Increment3=0
NumberOfCompletedData=1427
NumberOfCounts=1
NumberOfDetectors=0
NumberOfDrives=2
NumberOfEncoderDrives=0
NumberOfMeasuredData=1427
NumberOfVaryingParameters=0
RangeStartTime=0
RotationSpeed=60
ScanMode=1
ScanType=Locked Coupled
SimulatedMeasConditions=0
SlitChangerIn=0
SmootingWidth=0
Start=5
Steps=1427
SynchronousRotation=0
Time=76.8

[VarInfo]
Type=PSD_DISCRIM
Flags=0
Value=0.488;0.518

[PSD]
ActualTwoTheta=9999
FirstUsedChannel=0
FixedPSD=0
PSDOpening=2.94433
PSDType=5

[Drive]
DriveFlags=1
DriveName=2Theta
DriveNumber=2
DriveOffset=0
OffsetIndex=0
OscillationAmplitude=0
OscillationSpeed=0
StartPosition=5

[Drive]
DriveFlags=1
DriveName=Theta
DriveNumber=1
DriveOffset=0
OffsetIndex=0
OscillationAmplitude=0
OscillationSpeed=0
StartPosition=2.5

[Data]
     Angle,       PSD,
         5,       248,
   5.02454,       237,
   5.04907,       173,
   5.07361,       256,
   5.09814,       161,
   5.12268,       291,
   5.14722,       264,
   5.17175,       185,
   5.19629,       342,
   5.22083,       156,
   5.24536,       324,
    5.2699,       293,
   5.29443,       252,
   5.31897,       353,
   5.34351,       172,
   5.36804,       309,
   5.39258,       279,
   5.41711,       226,
   5.44165,       337,
   5.46619,       182,
   5.49072,       381,
   5.51526,       308,
   5.53979,       227,
   5.56433,       391,
   5.58887,       200,
    5.6134,       357,
   5.63794,       294,
   5.66248,       227,
   5.68701,       355,
   5.71155,       210,
   5.73608,       358,
   5.76062,       306,
   5.78516,       258,
   5.80969,       369,
   5.83423,       220,
   5.85876,       352,
    5.8833,       296,
   5.90784,       226,
   5.93237,       341,
   5.95691,       155,
   5.98144,       306,
   6.00598,       280,
   6.03052,       205,
   6.05505,       305,
   6.07959,       183,
   6.10413,       300,
   6.12866,       246,
    6.1532,       208,
   6.17773,       304,
   6.20227,       150,
   6.22681,       308,
   6.25134,       229,
   6.27588,       199,
   6.30041,       275,
   6.32495,       153,
   6.34949,       272,
   6.37402,       207,
   6.39856,       175,
    6.4231,       270,
   6.44763,       158,
   6.47217,       240,
    6.4967,       226,
   6.52124,       173,
   6.54578,       276,
   6.57031,       144,
   6.59485,       254,
   6.61938,       209,
   6.64392,       178,
   6.66846,       266,
   6.69299,       133,
   6.71753,       221,
   6.74206,       196,
    6.7666,       162,
   6.79114,       251,
   6.81567,       141,
   6.84021,       231,
   6.86475,       163,
   6.88928,       168,
   6.91382,       245,
   6.93835,       132,
   6.96289,       256,
   6.98743,       206,
   7.01196,       171,
    7.0365,       247,
   7.06103,       138,
   7.08557,       230,
   7.11011,       207,
   7.13464,       163,
   7.15918,       235,
   7.18371,       166,
   7.20825,       213,
   7.23279,       204,
   7.25732,       171,
   7.28186,       254,
    7.3064,       163,
   7.33093,       241,
   7.35547,       212,
      7.38,       171,
   7.40454,       244,
   7.42908,       125,
   7.45361,       223,
   7.47815,       199,
   7.50268,       154,
   7.52722,       250,
   7.55176,       144,
   7.57629,       216,
   7.60083,       187,
   7.62536,       174,
    7.6499,       247,
   7.67444,       149,
   7.69897,       229,
   7.72351,       215,
   7.74805,       168,
   7.77258,       256,
   7.79712,       162,
   7.82165,       220,
   7.84619,       237,
   7.87073,       147,
   7.89526,       283,
    7.9198,       162,
   7.94433,       231,
   7.96887,       242,
   7.99341,       161,
   8.01794,       259,
   8.04248,       151,
   8.06702,       212,
   8.09155,       213,
   8.11609,       179,
   8.14062,       262,
   8.16516,       181,
    8.1897,       256,
   8.21423,       242,
   8.23877,       190,
    8.2633,       282,
   8.28784,       187,
   8.31238,       249,
   8.33691,       208,
   8.36145,       205,
   8.38598,       288,
   8.41052,       186,
   8.43506,       269,
   8.45959,       283,
   8.48413,       212,
   8.50867,       339,
    8.5332,       217,
   8.55774,       284,
   8.58227,       266,
   8.60681,       245,
   8.63135,       324,
   8.65588,       208,
   8.68042,       306,
   8.70495,       247,
   8.72949,       245,
   8.75403,       333,
   8.77856,       241,
    8.8031,       331,
   8.82763,       306,
   8.85217,       282,
   8.87671,       375,
   8.90124,       271,
   8.92578,       343,
   8.95032,       347,
   8.97485,       307,
   8.99939,       400,
   9.02392,       301,
   9.04846,       366,
     9.073,       386,
   9.09753,       346,
   9.12207,       447,
    9.1466,       393,
   9.17114,       422,
   9.19568,       440,
   9.22021,       402,
   9.24475,       514,
   9.26929,       422,
   9.29382,       503,
   9.31836,       515,
   9.34289,       480,
   9.36743,       563,
   9.39197,       485,
    9.4165,       529,
   9.44104,       569,
   9.46557,       598,
   9.49011,       618,
   9.51465,       538,
   9.53918,       630,
   9.56372,       629,
   9.58825,       593,
   9.61279,       707,
   9.63733,       634,
   9.66186,       690,
    9.6864,       728,
   9.71094,       735,
   9.73547,       815,
   9.76001,       835,
   9.78454,       849,
   9.80908,       819,
   9.83362,       794,
   9.85815,       811,
   9.88269,       779,
   9.90722,       825,
   9.93176,       840,
    9.9563,       786,
   9.98083,       834,
   10.0054,       825,
   10.0299,       801,
   10.0544,       843,
    10.079,       853,
   10.1035,       895,
    10.128,       859,
   10.1526,       888,
   10.1771,       901,
   10.2017,       866,
   10.2262,       973,
   10.2507,       897,
   10.2753,       973,
   10.2998,       945,
   10.3243,      1007,
   10.3489,      1050,
   10.3734,       985,
   10.3979,       983,
   10.4225,      1092,
    10.447,       985,
   10.4716,      1022,
   10.4961,       980,
   10.5206,      1031,
   10.5452,      1037,
   10.5697,      1057,
   10.5942,      1050,
   10.6188,      1043,
   10.6433,      1113,
   10.6678,      1175,
   10.6924,      1133,
   10.7169,      1119,
   10.7415,      1222,
    10.766,      1196,
   10.7905,      1049,
   10.8151,      1109,
   10.8396,      1155,
   10.8641,      1185,
   10.8887,      1107,
   10.9132,      1133,
   10.9377,      1113,
   10.9623,      1156,
   10.9868,      1148,
   11.0113,      1225,
   11.0359,      1208,
   11.0604,      1242,
    11.085,      1218,
   11.1095,      1197,
    11.134,      1219,
   11.1586,      1230,
   11.1831,      1155,
   11.2076,      1322,
   11.2322,      1252,
   11.2567,      1318,
   11.2812,      1329,
   11.3058,      1313,
   11.3303,      1311,
   11.3549,      1342,
   11.3794,      1403,
   11.4039,      1454,
   11.4285,      1521,
    11.453,      1661,
   11.4775,      1771,
   11.5021,      1827,
   11.5266,      1957,
   11.5511,      1786,
   11.5757,      1745,
   11.6002,      1626,
   11.6248,      1575,
   11.6493,      1488,
   11.6738,      1424,
   11.6984,      1338,
   11.7229,      1332,
   11.7474,      1306,
    11.772,      1245,
   11.7965,      1241,
    11.821,      1253,
   11.8456,      1207,
   11.8701,      1264,
   11.8946,      1313,
   11.9192,      1203,
   11.9437,      1251,
   11.9683,      1255,
   11.9928,      1214,
   12.0173,      1302,
   12.0419,      1309,
   12.0664,      1293,
   12.0909,      1189,
   12.1155,      1225,
     12.14,      1288,
   12.1645,      1343,
   12.1891,      1241,
   12.2136,      1221,
   12.2382,      1279,
   12.2627,      1210,
   12.2872,      1250,
   12.3118,      1390,
   12.3363,      1391,
   12.3608,      1477,
   12.3854,      1574,
   12.4099,      1747,
   12.4344,      1924,
    12.459,      2128,
   12.4835,      2220,
   12.5081,      2263,
   12.5326,      2221,
   12.5571,      2087,
   12.5817,      1957,
   12.6062,      1750,
   12.6307,      1645,
   12.6553,      1490,
   12.6798,      1404,
   12.7043,      1313,
   12.7289,      1282,
   12.7534,      1318,
    12.778,      1188,
   12.8025,      1303,
    12.827,      1306,
   12.8516,      1270,
   12.8761,      1708,
   12.9006,      3899,
   12.9252,      3607,
   12.9497,      1621,
   12.9742,      2296,
   12.9988,      2892,
   13.0233,      1379,
   13.0478,      1180,
   13.0724,      1179,
   13.0969,      1170,
   13.1215,      1112,
    13.146,      1161,
   13.1705,      1130,
   13.1951,      1108,
   13.2196,      1192,
   13.2441,      1060,
   13.2687,      1103,
   13.2932,      1138,
   13.3177,      1103,
   13.3423,      1137,
   13.3668,      1117,
   13.3914,      1138,
   13.4159,      1178,
   13.4404,      1248,
    13.465,      1268,
   13.4895,      1354,
    13.514,      1623,
   13.5386,      1893,
   13.5631,      1895,
   13.5876,      1656,
   13.6122,      1628,
   13.6367,      1594,
   13.6613,      1403,
   13.6858,      1244,
   13.7103,      1150,
   13.7349,      1078,
   13.7594,       976,
   13.7839,      1051,
   13.8085,      1114,
    13.833,      1013,
   13.8575,      1082,
   13.8821,      1045,
   13.9066,       999,
   13.9311,       962,
   13.9557,      1018,
   13.9802,      1010,
   14.0048,      1026,
   14.0293,       983,
   14.0538,      1015,
   14.0784,       996,
   14.1029,       992,
   14.1274,       983,
    14.152,       961,
   14.1765,       932,
    14.201,      1000,
   14.2256,       973,
   14.2501,       929,
   14.2747,       961,
   14.2992,       976,
   14.3237,       995,
   14.3483,       945,
   14.3728,       887,
   14.3973,       972,
   14.4219,       958,
   14.4464,       977,
   14.4709,       990,
   14.4955,       962,
     14.52,       959,
   14.5446,       999,
   14.5691,       992,
   14.5936,       970,
   14.6182,       960,
   14.6427,       956,
   14.6672,       977,
   14.6918,       985,
   14.7163,       955,
   14.7408,       976,
   14.7654,       999,
   14.7899,       968,
   14.8144,      1011,
    14.839,       969,
   14.8635,      1058,
   14.8881,      1065,
   14.9126,      1113,
   14.9371,      1247,
   14.9617,      1391,
   14.9862,      1508,
   15.0107,      1709,
   15.0353,      1849,
   15.0598,      1861,
   15.0843,      1914,
   15.1089,      1803,
   15.1334,      1757,
    15.158,      1574,
   15.1825,      1458,
    15.207,      1330,
   15.2316,      1148,
   15.2561,      1075,
   15.2806,      1018,
   15.3052,      1018,
   15.3297,       985,
   15.3542,       994,
   15.3788,       943,
   15.4033,       876,
   15.4279,       827,
   15.4524,       856,
   15.4769,       843,
   15.5015,       819,
    15.526,       850,
   15.5505,       893,
   15.5751,       835,
   15.5996,       828,
   15.6241,       855,
   15.6487,       803,
   15.6732,       783,
   15.6977,       830,
   15.7223,       780,
   15.7468,       797,
   15.7714,       823,
   15.7959,       735,
   15.8204,       796,
    15.845,       761,
   15.8695,       749,
    15.894,       832,
   15.9186,       726,
   15.9431,       766,
   15.9676,       799,
   15.9922,       711,
   16.0167,       772,
   16.0413,       730,
   16.0658,       742,
   16.0903,       703,
   16.1149,       740,
   16.1394,       723,
   16.1639,       699,
   16.1885,       718,
    16.213,       757,
   16.2375,       749,
   16.2621,       696,
   16.2866,       718,
   16.3112,       711,
   16.3357,       736,
   16.3602,       762,
   16.3848,       692,
   16.4093,       733,
   16.4338,       788,
   16.4584,       821,
   16.4829,       799,
   16.5074,       781,
    16.532,       779,
   16.5565,       797,
    16.581,       793,
   16.6056,       744,
   16.6301,       745,
   16.6547,       690,
   16.6792,       674,
   16.7037,       716,
   16.7283,       685,
   16.7528,       701,
   16.7773,       658,
   16.8019,       717,
   16.8264,       646,
   16.8509,       604,
   16.8755,       671,
      16.9,       709,
   16.9246,       699,
   16.9491,       666,
   16.9736,       638,
   16.9982,       668,
   17.0227,       675,
   17.0472,       694,
   17.0718,       709,
   17.0963,       662,
   17.1208,       659,
   17.1454,       707,
   17.1699,       658,
   17.1945,       667,
    17.219,       632,
   17.2435,       618,
   17.2681,       662,
   17.2926,       676,
   17.3171,       637,
   17.3417,       662,
   17.3662,       648,
   17.3907,       684,
   17.4153,       684,
   17.4398,       675,
   17.4643,       685,
   17.4889,       693,
   17.5134,       664,
    17.538,       628,
   17.5625,       643,
    17.587,       633,
   17.6116,       714,
   17.6361,       731,
   17.6606,       706,
   17.6852,       689,
   17.7097,       715,
   17.7342,       746,
   17.7588,       741,
   17.7833,       792,
   17.8079,       732,
   17.8324,       760,
   17.8569,       686,
   17.8815,       717,
    17.906,       760,
   17.9305,       752,
   17.9551,       863,
   17.9796,       888,
   18.0041,       854,
   18.0287,       799,
   18.0532,       805,
   18.0778,       808,
   18.1023,       795,
   18.1268,       779,
   18.1514,       739,
   18.1759,       694,
   18.2004,       707,
    18.225,       658,
   18.2495,       714,
    18.274,       668,
   18.2986,       665,
   18.3231,       696,
   18.3476,       686,
   18.3722,       693,
   18.3967,       645,
   18.4213,       648,
   18.4458,       651,
   18.4703,       689,
   18.4949,       661,
   18.5194,       691,
   18.5439,       728,
   18.5685,       734,
    18.593,       669,
   18.6175,       676,
   18.6421,       670,
   18.6666,       636,
   18.6912,       706,
   18.7157,       692,
   18.7402,       685,
   18.7648,       599,
   18.7893,       593,
   18.8138,       632,
   18.8384,       660,
   18.8629,       664,
   18.8874,       658,
    18.912,       725,
   18.9365,       676,
   18.9611,       706,
   18.9856,       687,
   19.0101,       676,
   19.0347,       715,
   19.0592,       646,
   19.0837,       676,
   19.1083,       665,
   19.1328,       646,
   19.1573,       682,
   19.1819,       685,
   19.2064,       679,
    19.231,       636,
   19.2555,       624,
     19.28,       655,
   19.3046,       673,
   19.3291,       707,
   19.3536,       771,
   19.3782,       714,
   19.4027,       751,
   19.4272,       738,
   19.4518,       759,
   19.4763,       783,
   19.5008,       836,
   19.5254,       785,
   19.5499,       748,
   19.5745,       778,
    19.599,       792,
   19.6235,       830,
   19.6481,       848,
   19.6726,       820,
   19.6971,       841,
   19.7217,       808,
   19.7462,       853,
   19.7707,       906,
   19.7953,       919,
   19.8198,       917,
   19.8444,      1048,
   19.8689,      1158,
   19.8934,      1189,
    19.918,      1226,
   19.9425,      1211,
    19.967,      1192,
   19.9916,      1104,
   20.0161,      1116,
   20.0406,      1107,
   20.0652,      1006,
   20.0897,       942,
   20.1143,       890,
   20.1388,       821,
   20.1633,       773,
   20.1879,       708,
   20.2124,       711,
   20.2369,       720,
   20.2615,       707,
    20.286,       646,
   20.3105,       633,
   20.3351,       668,
   20.3596,       657,
   20.3841,       641,
   20.4087,       651,
   20.4332,       655,
   20.4578,       643,
   20.4823,       676,
   20.5068,       629,
   20.5314,       652,
   20.5559,       598,
   20.5804,       650,
    20.605,       605,
   20.6295,       668,
    20.654,       631,
   20.6786,       593,
   20.7031,       609,
   20.7277,       622,
   20.7522,       587,
   20.7767,       637,
   20.8013,       615,
   20.8258,       595,
   20.8503,       637,
   20.8749,       640,
   20.8994,       637,
   20.9239,       614,
   20.9485,       566,
    20.973,       623,
   20.9976,       574,
   21.0221,       630,
   21.0466,       615,
   21.0712,       620,
   21.0957,       651,
   21.1202,       591,
   21.1448,       608,
   21.1693,       632,
   21.1938,       634,
   21.2184,       657,
   21.2429,       598,
   21.2674,       653,
    21.292,       686,
   21.3165,       728,
   21.3411,       791,
   21.3656,       744,
   21.3901,       760,
   21.4147,       722,
   21.4392,       706,
   21.4637,       759,
   21.4883,       774,
   21.5128,       816,
   21.5373,       763,
   21.5619,       722,
   21.5864,       711,
    21.611,       702,
   21.6355,       738,
     21.66,       700,
   21.6846,       762,
   21.7091,       701,
   21.7336,       683,
   21.7582,       721,
   21.7827,       725,
   21.8072,       702,
   21.8318,       689,
   21.8563,       636,
   21.8809,       704,
   21.9054,       796,
   21.9299,       835,
   21.9545,       849,
    21.979,       794,
   22.0035,       800,
   22.0281,       763,
   22.0526,       797,
   22.0771,       838,
   22.1017,       856,
   22.1262,       862,
   22.1507,       839,
   22.1753,       834,
   22.1998,       842,
   22.2244,       825,
   22.2489,       773,
   22.2734,       768,
    22.298,       855,
   22.3225,       808,
    22.347,       802,
   22.3716,       757,
   22.3961,       808,
   22.4206,       762,
   22.4452,       796,
   22.4697,       851,
   22.4943,       866,
   22.5188,       970,
   22.5433,      1012,
   22.5679,      1067,
   22.5924,      1067,
   22.6169,      1134,
   22.6415,      1116,
    22.666,      1047,
   22.6905,      1074,
   22.7151,       915,
   22.7396,       952,
   22.7642,       945,
   22.7887,       790,
   22.8132,       821,
   22.8378,       771,
   22.8623,       725,
   22.8868,       643,
   22.9114,       719,
   22.9359,       640,
   22.9604,       699,
    22.985,       664,
   23.0095,       666,
    23.034,       715,
   23.0586,       647,
   23.0831,       664,
   23.1077,       665,
   23.1322,       657,
   23.1567,       594,
   23.1813,       612,
   23.2058,       634,
   23.2303,       602,
   23.2549,       621,
   23.2794,       625,
   23.3039,       602,
   23.3285,       605,
    23.353,       545,
   23.3776,       615,
   23.4021,       585,
   23.4266,       575,
   23.4512,       592,
   23.4757,       589,
   23.5002,       623,
   23.5248,       634,
   23.5493,       643,
   23.5738,       642,
   23.5984,       614,
   23.6229,       617,
   23.6475,       623,
    23.672,       586,
   23.6965,       569,
   23.7211,       562,
   23.7456,       609,
   23.7701,       603,
   23.7947,       594,
   23.8192,       597,
   23.8437,       628,
   23.8683,       584,
   23.8928,       606,
   23.9173,       619,
   23.9419,       557,
   23.9664,       603,
    23.991,       644,
   24.0155,       600,
     24.04,       571,
   24.0646,       568,
   24.0891,       639,
   24.1136,       613,
   24.1382,       576,
   24.1627,       609,
   24.1872,       629,
   24.2118,       608,
   24.2363,       631,
   24.2609,       641,
   24.2854,       636,
   24.3099,       629,
   24.3345,       612,
    24.359,       637,
   24.3835,       600,
   24.4081,       624,
   24.4326,       636,
   24.4571,       586,
   24.4817,       648,
   24.5062,       586,
   24.5308,       647,
   24.5553,       629,
   24.5798,       645,
   24.6044,       622,
   24.6289,       623,
   24.6534,       643,
    24.678,       663,
   24.7025,       634,
    24.727,       643,
   24.7516,       663,
   24.7761,       661,
   24.8006,       642,
   24.8252,       667,
   24.8497,       652,
   24.8743,       657,
   24.8988,       717,
   24.9233,       674,
   24.9479,       804,
   24.9724,       826,
   24.9969,       791,
   25.0215,       783,
    25.046,       772,
   25.0705,       751,
   25.0951,       795,
   25.1196,       807,
   25.1442,       771,
   25.1687,       754,
   25.1932,       782,
   25.2178,       708,
   25.2423,       692,
   25.2668,       674,
   25.2914,       739,
   25.3159,       754,
   25.3404,       678,
    25.365,       669,
   25.3895,       698,
   25.4141,       690,
   25.4386,       652,
   25.4631,       674,
   25.4877,       610,
   25.5122,       666,
   25.5367,       693,
   25.5613,       642,
   25.5858,       663,
   25.6103,       651,
   25.6349,       708,
   25.6594,       710,
   25.6839,       752,
   25.7085,       732,
    25.733,       688,
   25.7576,       674,
   25.7821,       678,
   25.8066,       669,
   25.8312,       742,
   25.8557,       798,
   25.8802,       822,
   25.9048,       686,
   25.9293,       690,
   25.9538,       665,
   25.9784,       666,
   26.0029,       732,
   26.0275,       731,
    26.052,       661,
   26.0765,       616,
   26.1011,       610,
   26.1256,       692,
   26.1501,       645,
   26.1747,       621,
   26.1992,       664,
   26.2237,       649,
   26.2483,       649,
   26.2728,       659,
   26.2974,       620,
   26.3219,       660,
   26.3464,       665,
    26.371,       646,
   26.3955,       609,
     26.42,       621,
   26.4446,       624,
   26.4691,       651,
   26.4936,       648,
   26.5182,       627,
   26.5427,       677,
   26.5673,       654,
   26.5918,       643,
   26.6163,       651,
   26.6409,       684,
   26.6654,       704,
   26.6899,       717,
   26.7145,       671,
    26.739,       691,
   26.7635,       647,
   26.7881,       671,
   26.8126,       645,
   26.8371,       669,
   26.8617,       732,
   26.8862,       697,
   26.9108,       693,
   26.9353,       733,
   26.9598,       641,
   26.9844,       741,
   27.0089,       692,
   27.0334,       766,
    27.058,       725,
   27.0825,       700,
    27.107,       720,
   27.1316,       768,
   27.1561,       678,
   27.1807,       717,
   27.2052,       742,
   27.2297,       678,
   27.2543,       679,
   27.2788,       710,
   27.3033,       688,
   27.3279,       659,
   27.3524,       638,
   27.3769,       710,
   27.4015,       640,
    27.426,       644,
   27.4506,       618,
   27.4751,       645,
   27.4996,       668,
   27.5242,       672,
   27.5487,       665,
   27.5732,       661,
   27.5978,       635,
   27.6223,       619,
   27.6468,       623,
   27.6714,       686,
   27.6959,       624,
   27.7204,       639,
    27.745,       648,
   27.7695,       627,
   27.7941,       640,
   27.8186,       636,
   27.8431,       679,
   27.8677,       619,
   27.8922,       708,
   27.9167,       733,
   27.9413,       645,
   27.9658,       664,
   27.9903,       673,
   28.0149,       739,
   28.0394,       666,
    28.064,       694,
   28.0885,       719,
    28.113,       606,
   28.1376,       687,
   28.1621,       624,
   28.1866,       696,
   28.2112,       656,
   28.2357,       665,
   28.2602,       654,
   28.2848,       645,
   28.3093,       608,
   28.3339,       644,
   28.3584,       641,
   28.3829,       677,
   28.4075,       656,
    28.432,       620,
   28.4565,       648,
   28.4811,       678,
   28.5056,       635,
   28.5301,       704,
   28.5547,       682,
   28.5792,       622,
   28.6037,       653,
   28.6283,       684,
   28.6528,       713,
   28.6774,       782,
   28.7019,       669,
   28.7264,       625,
    28.751,       665,
   28.7755,       652,
      28.8,       674,
   28.8246,       652,
   28.8491,       708,
   28.8736,       676,
   28.8982,       672,
   28.9227,       666,
   28.9473,       689,
   28.9718,       663,
   28.9963,       658,
   29.0209,       680,
   29.0454,       656,
   29.0699,       678,
   29.0945,       675,
    29.119,       674,
   29.1435,       683,
   29.1681,       609,
   29.1926,       660,
   29.2172,       619,
   29.2417,       629,
   29.2662,       669,
   29.2908,       625,
   29.3153,       642,
   29.3398,       657,
   29.3644,       631,
   29.3889,       602,
   29.4134,       651,
    29.438,       606,
   29.4625,       621,
    29.487,       663,
   29.5116,       589,
   29.5361,       624,
   29.5607,       600,
   29.5852,       623,
   29.6097,       650,
   29.6343,       582,
   29.6588,       628,
   29.6833,       627,
   29.7079,       618,
   29.7324,       626,
   29.7569,       612,
   29.7815,       660,
    29.806,       635,
   29.8306,       631,
   29.8551,       661,
   29.8796,       611,
   29.9042,       564,
   29.9287,       648,
   29.9532,       624,
   29.9778,       626,
   30.0023,       634,
   30.0268,       619,
   30.0514,       686,
   30.0759,       629,
   30.1005,       616,
    30.125,       676,
   30.1495,       606,
   30.1741,       663,
   30.1986,       636,
   30.2231,       620,
   30.2477,       651,
   30.2722,       657,
   30.2967,       698,
   30.3213,       665,
   30.3458,       618,
   30.3703,       648,
   30.3949,       661,
   30.4194,       646,
    30.444,       650,
   30.4685,       663,
    30.493,       639,
   30.5176,       640,
   30.5421,       631,
   30.5666,       613,
   30.5912,       648,
   30.6157,       651,
   30.6402,       606,
   30.6648,       658,
   30.6893,       610,
   30.7139,       633,
   30.7384,       661,
   30.7629,       655,
   30.7875,       603,
    30.812,       649,
   30.8365,       652,
   30.8611,       662,
   30.8856,       657,
   30.9101,       680,
   30.9347,       652,
   30.9592,       614,
   30.9838,       605,
   31.0083,       578,
   31.0328,       637,
   31.0574,       630,
   31.0819,       647,
   31.1064,       624,
    31.131,       630,
   31.1555,       639,
     31.18,       598,
   31.2046,       608,
   31.2291,       616,
   31.2536,       608,
   31.2782,       614,
   31.3027,       571,
   31.3273,       620,
   31.3518,       602,
   31.3763,       613,
   31.4009,       595,
   31.4254,       602,
   31.4499,       618,
   31.4745,       627,
    31.499,       635,
   31.5235,       640,
   31.5481,       629,
   31.5726,       637,
   31.5972,       633,
   31.6217,       642,
   31.6462,       646,
   31.6708,       623,
   31.6953,       655,
   31.7198,       681,
   31.7444,       629,
   31.7689,       642,
   31.7934,       645,
    31.818,       606,
   31.8425,       618,
   31.8671,       621,
   31.8916,       632,
   31.9161,       650,
   31.9407,       619,
   31.9652,       630,
   31.9897,       619,
   32.0143,       647,
   32.0388,       664,
   32.0633,       692,
   32.0879,       717,
   32.1124,       693,
   32.1369,       668,
   32.1615,       701,
    32.186,       657,
   32.2106,       664,
   32.2351,       647,
   32.2596,       624,
   32.2842,       638,
   32.3087,       633,
   32.3332,       589,
   32.3578,       576,
   32.3823,       621,
   32.4068,       583,
   32.4314,       589,
   32.4559,       599,
   32.4805,       597,
    32.505,       602,
   32.5295,       574,
   32.5541,       604,
   32.5786,       597,
   32.6031,       594,
   32.6277,       548,
   32.6522,       558,
   32.6767,       574,
   32.7013,       590,
   32.7258,       576,
   32.7504,       576,
   32.7749,       568,
   32.7994,       626,
    32.824,       556,
   32.8485,       541,
    32.873,       585,
   32.8976,       611,
   32.9221,       573,
   32.9466,       515,
   32.9712,       543,
   32.9957,       560,
   33.0203,       578,
   33.0448,       579,
   33.0693,       560,
   33.0939,       553,
   33.1184,       588,
   33.1429,       525,
   33.1675,       561,
    33.192,       621,
   33.2165,       572,
   33.2411,       600,
   33.2656,       576,
   33.2901,       622,
   33.3147,       585,
   33.3392,       576,
   33.3638,       633,
   33.3883,       585,
   33.4128,       598,
   33.4374,       591,
   33.4619,       513,
   33.4864,       586,
    33.511,       580,
   33.5355,       545,
     33.56,       563,
   33.5846,       591,
   33.6091,       539,
   33.6337,       584,
   33.6582,       553,
   33.6827,       601,
   33.7073,       546,
   33.7318,       555,
   33.7563,       558,
   33.7809,       558,
   33.8054,       529,
   33.8299,       578,
   33.8545,       565,
    33.879,       535,
   33.9036,       522,
   33.9281,       583,
   33.9526,       551,
   33.9772,       569,
   34.0017,       558,
   34.0262,       563,
   34.0508,       537,
   34.0753,       529,
   34.0998,       531,
   34.1244,       538,
   34.1489,       554,
   34.1734,       522,
    34.198,       549,
   34.2225,       501,
   34.2471,       487,
   34.2716,       572,
   34.2961,       538,
   34.3207,       543,
   34.3452,       520,
   34.3697,       527,
   34.3943,       509,
   34.4188,       565,
   34.4433,       525,
   34.4679,       548,
   34.4924,       516,
    34.517,       512,
   34.5415,       520,
    34.566,       513,
   34.5906,       562,
   34.6151,       523,
   34.6396,       527,
   34.6642,       530,
   34.6887,       579,
   34.7132,       536,
   34.7378,       553,
   34.7623,       545,
   34.7869,       523,
   34.8114,       506,
   34.8359,       577,
   34.8605,       525,
    34.885,       583,
   34.9095,       543,
   34.9341,       584,
   34.9586,       545,
   34.9831,       566,
   35.0077,       538,
   35.0322,       541,
   35.0567,       550,
   35.0813,       512,
   35.1058,       568,
   35.1304,       605,
   35.1549,       557,
   35.1794,       544,
    35.204,       554,
   35.2285,       491,
    35.253,       516,
   35.2776,       531,
   35.3021,       545,
   35.3266,       544,
   35.3512,       494,
   35.3757,       521,
   35.4003,       541,
   35.4248,       551,
   35.4493,       521,
   35.4739,       475,
   35.4984,       506,
   35.5229,       493,
   35.5475,       537,
    35.572,       513,
   35.5965,       532,
   35.6211,       528,
   35.6456,       514,
   35.6702,       531,
   35.6947,       535,
   35.7192,       550,
   35.7438,       536,
   35.7683,       547,
   35.7928,       538,
   35.8174,       582,
   35.8419,       550,
   35.8664,       540,
    35.891,       502,
   35.9155,       501,
     35.94,       537,
   35.9646,       512,
   35.9891,       553,
   36.0137,       567,
   36.0382,       488,
   36.0627,       508,
   36.0873,       525,
   36.1118,       533,
   36.1363,       536,
   36.1609,       551,
   36.1854,       535,
   36.2099,       541,
   36.2345,       534,
    36.259,       517,
   36.2836,       507,
   36.3081,       510,
   36.3326,       530,
   36.3572,       524,
   36.3817,       586,
   36.4062,       515,
   36.4308,       544,
   36.4553,       531,
   36.4798,       490,
   36.5044,       476,
   36.5289,       473,
   36.5535,       512,
    36.578,       468,
   36.6025,       464,
   36.6271,       536,
   36.6516,       496,
   36.6761,       530,
   36.7007,       460,
   36.7252,       483,
   36.7497,       487,
   36.7743,       495,
   36.7988,       493,
   36.8233,       466,
   36.8479,       462,
   36.8724,       456,
    36.897,       452,
   36.9215,       478,
    36.946,       441,
   36.9706,       455,
   36.9951,       443,
   37.0196,       486,
   37.0442,       464,
   37.0687,       460,
   37.0932,       461,
   37.1178,       446,
   37.1423,       459,
   37.1669,       416,
   37.1914,       426,
   37.2159,       426,
   37.2405,       461,
    37.265,       435,
   37.2895,       415,
   37.3141,       444,
   37.3386,       449,
   37.3631,       452,
   37.3877,       467,
   37.4122,       423,
   37.4368,       457,
   37.4613,       414,
   37.4858,       462,
   37.5104,       495,
   37.5349,       463,
   37.5594,       445,
    37.584,       449,
   37.6085,       423,
    37.633,       445,
   37.6576,       441,
   37.6821,       438,
   37.7066,       410,
   37.7312,       489,
   37.7557,       440,
   37.7803,       464,
   37.8048,       428,
   37.8293,       403,
   37.8539,       425,
   37.8784,       449,
   37.9029,       427,
   37.9275,       419,
    37.952,       438,
   37.9765,       416,
   38.0011,       427,
   38.0256,       416,
   38.0502,       409,
   38.0747,       399,
   38.0992,       415,
   38.1238,       436,
   38.1483,       425,
   38.1728,       396,
   38.1974,       412,
   38.2219,       442,
   38.2464,       455,
    38.271,       397,
   38.2955,       440,
   38.3201,       451,
   38.3446,       413,
   38.3691,       416,
   38.3937,       371,
   38.4182,       386,
   38.4427,       426,
   38.4673,       432,
   38.4918,       426,
   38.5163,       433,
   38.5409,       468,
   38.5654,       419,
   38.5899,       398,
   38.6145,       399,
    38.639,       399,
   38.6636,       395,
   38.6881,       421,
   38.7126,       406,
   38.7372,       398,
   38.7617,       408,
   38.7862,       427,
   38.8108,       400,
   38.8353,       431,
   38.8598,       407,
   38.8844,       378,
   38.9089,       431,
   38.9335,       391,
    38.958,       407,
   38.9825,       449,
   39.0071,       391,
   39.0316,       429,
   39.0561,       430,
   39.0807,       422,
   39.1052,       418,
   39.1297,       443,
   39.1543,       411,
   39.1788,       399,
   39.2034,       420,
   39.2279,       435,
   39.2524,       419,
    39.277,       463,
   39.3015,       432,
    39.326,       442,
   39.3506,       427,
   39.3751,       412,
   39.3996,       394,
   39.4242,       451,
   39.4487,       410,
   39.4732,       458,
   39.4978,       473,
   39.5223,       423,
   39.5469,       446,
   39.5714,       441,
   39.5959,       460,
   39.6205,       439,
    39.645,       484,
   39.6695,       436,
   39.6941,       458,
   39.7186,       496,
   39.7431,       430,
   39.7677,       452,
   39.7922,       454,
   39.8168,       438,
   39.8413,       441,
   39.8658,       438,
   39.8904,       457,
   39.9149,       455,
   39.9394,       419,
    39.964,       428,
   39.9885,       460,
