;RAW4.00
[RawHeader]
Date=03/16/2022
EstimatedTotalTime=633.801
FurtherDQLReading=0
HardwareIndicator=65519
MeasuredTotalTime=633.801
MeasurementFlag=1
NumberOfMeasuredRanges=1
NumberOfRanges=1
Time=12:42:07

[VarInfo]
Type=USER
Flags=0
Value=Lab Manager

[VarInfo]
Type=SAMPLEID
Flags=0
Value=

[VarInfo]
Type=COMMENT
Flags=0
Value=

[VarInfo]
Type=UTF
Flags=0
Value=

[VarInfo]
Type=CREATOR
Flags=0
Value=BrmlToV4Converter

[VarInfo]
Type=CREATOR_VERSION
Flags=0
Value=7.3.1.0

[HardwareConfiguration]
AbsorptionFactor=9999
ActivateAbsorber=0
Alpha1=0.7093
Alpha2=0.71359
AlphaAverage=0.71073
AlphaRatio=0.5
Analyzer=0
Anode=Mo
AntiScatteringSlit=18
BeamOpticsFlags=0
Beta=0.63229
BetaRelativeIntensity=0
DeactivateAbsorber=0
DetectorSlit=9999
DivergenceSlit=0.2
GoniometerControl=0
GoniometerDiameter=560
GoniometerModel=512
GoniometerStage=7
Monochromator=0
NearSampleSlit=9999
PrimarySollerSlit=2.5
SampleChanger=0
SecondSollerSlit=9999
SynchronousAxis=0
ThinFilmAttachment=9999
WaveUnit=A

[RangeHeader]
ActuallyUsedLambda=0.71073
AdditionalDetectorMask=257
DataRecordLength=4
DelayTime=0
DisplayPlaneNumber=0
EstimatedScanTime=634
ExtraParametersMask=0
GeneratorCurrent=40
GeneratorVoltage=50
Increment=0.0245361
Increment3=0
NumberOfCompletedData=1427
NumberOfCounts=1
NumberOfDetectors=0
NumberOfDrives=2
NumberOfEncoderDrives=0
NumberOfMeasuredData=1427
NumberOfVaryingParameters=0
RangeStartTime=0
RotationSpeed=60
ScanMode=1
ScanType=Locked Coupled
SimulatedMeasConditions=0
SlitChangerIn=0
SmootingWidth=0
Start=5
Steps=1427
SynchronousRotation=0
Time=76.8

[VarInfo]
Type=PSD_DISCRIM
Flags=0
Value=0.488;0.518

[PSD]
ActualTwoTheta=9999
FirstUsedChannel=0
FixedPSD=0
PSDOpening=2.94433
PSDType=5

[Drive]
DriveFlags=1
DriveName=2Theta
DriveNumber=2
DriveOffset=0
OffsetIndex=0
OscillationAmplitude=0
OscillationSpeed=0
StartPosition=5

[Drive]
DriveFlags=1
DriveName=Theta
DriveNumber=1
DriveOffset=0
OffsetIndex=0
OscillationAmplitude=0
OscillationSpeed=0
StartPosition=2.5

[Data]
     Angle,       PSD,
         5,        95,
   5.02454,        87,
   5.04907,       130,
   5.07361,        68,
   5.09814,       124,
   5.12268,       111,
   5.14722,       122,
   5.17175,       142,
   5.19629,        93,
   5.22083,       144,
   5.24536,        97,
    5.2699,       109,
   5.29443,       169,
   5.31897,        86,
   5.34351,       138,
   5.36804,       123,
   5.39258,       131,
   5.41711,       146,
   5.44165,        94,
   5.46619,       142,
   5.49072,       138,
   5.51526,       123,
   5.53979,       164,
   5.56433,        86,
   5.58887,       156,
    5.6134,       119,
   5.63794,       114,
   5.66248,       144,
   5.68701,        77,
   5.71155,       145,
   5.73608,       106,
   5.76062,       123,
   5.78516,       144,
   5.80969,        82,
   5.83423,       128,
   5.85876,       124,
    5.8833,       129,
   5.90784,       130,
   5.93237,        85,
   5.95691,       132,
   5.98144,       124,
   6.00598,       120,
   6.03052,       135,
   6.05505,        83,
   6.07959,       150,
   6.10413,       105,
   6.12866,       110,
    6.1532,       161,
   6.17773,        87,
   6.20227,       150,
   6.22681,       104,
   6.25134,        98,
   6.27588,       151,
   6.30041,        71,
   6.32495,       154,
   6.34949,       107,
   6.37402,       118,
   6.39856,       134,
    6.4231,        73,
   6.44763,       118,
   6.47217,        96,
    6.4967,       100,
   6.52124,       149,
   6.54578,        78,
   6.57031,       125,
   6.59485,       106,
   6.61938,       124,
   6.64392,       150,
   6.66846,        74,
   6.69299,       131,
   6.71753,       128,
   6.74206,       105,
    6.7666,       142,
   6.79114,        69,
   6.81567,       147,
   6.84021,        92,
   6.86475,        95,
   6.88928,       156,
   6.91382,        91,
   6.93835,       117,
   6.96289,       120,
   6.98743,       108,
   7.01196,       143,
    7.0365,        77,
   7.06103,       135,
   7.08557,        99,
   7.11011,       122,
   7.13464,       157,
   7.15918,        86,
   7.18371,       128,
   7.20825,        79,
   7.23279,       114,
   7.25732,       152,
   7.28186,        73,
    7.3064,       148,
   7.33093,       104,
   7.35547,       107,
      7.38,       156,
   7.40454,        88,
   7.42908,       136,
   7.45361,       106,
   7.47815,       129,
   7.50268,       143,
   7.52722,        97,
   7.55176,       148,
   7.57629,       101,
   7.60083,       105,
   7.62536,       135,
    7.6499,        88,
   7.67444,       150,
   7.69897,       142,
   7.72351,       126,
   7.74805,       178,
   7.77258,        78,
   7.79712,       151,
   7.82165,       115,
   7.84619,       135,
   7.87073,       148,
   7.89526,       108,
    7.9198,       174,
   7.94433,       130,
   7.96887,       129,
   7.99341,       139,
   8.01794,        81,
   8.04248,       155,
   8.06702,       115,
   8.09155,       124,
   8.11609,       163,
   8.14062,       106,
   8.16516,       179,
    8.1897,       130,
   8.21423,       111,
   8.23877,       191,
    8.2633,       108,
   8.28784,       169,
   8.31238,       118,
   8.33691,       148,
   8.36145,       175,
   8.38598,       106,
   8.41052,       177,
   8.43506,       138,
   8.45959,       144,
   8.48413,       169,
   8.50867,       122,
    8.5332,       195,
   8.55774,       128,
   8.58227,       141,
   8.60681,       161,
   8.63135,       125,
   8.65588,       175,
   8.68042,       158,
   8.70495,       157,
   8.72949,       200,
   8.75403,       129,
   8.77856,       182,
    8.8031,       142,
   8.82763,       148,
   8.85217,       194,
   8.87671,       142,
   8.90124,       224,
   8.92578,       168,
   8.95032,       157,
   8.97485,       212,
   8.99939,       114,
   9.02392,       191,
   9.04846,       172,
     9.073,       178,
   9.09753,       208,
   9.12207,       123,
    9.1466,       209,
   9.17114,       163,
   9.19568,       180,
   9.22021,       247,
   9.24475,       160,
   9.26929,       231,
   9.29382,       202,
   9.31836,       172,
   9.34289,       224,
   9.36743,       156,
   9.39197,       249,
    9.4165,       206,
   9.44104,       221,
   9.46557,       310,
   9.49011,       214,
   9.51465,       330,
   9.53918,       276,
   9.56372,       258,
   9.58825,       339,
   9.61279,       225,
   9.63733,       320,
   9.66186,       249,
    9.6864,       241,
   9.71094,       264,
   9.73547,       223,
   9.76001,       281,
   9.78454,       250,
   9.80908,       277,
   9.83362,       291,
   9.85815,       213,
   9.88269,       318,
   9.90722,       299,
   9.93176,       267,
    9.9563,       359,
   9.98083,       282,
   10.0054,       355,
   10.0299,       312,
   10.0544,       288,
    10.079,       370,
   10.1035,       285,
    10.128,       376,
   10.1526,       325,
   10.1771,       344,
   10.2017,       424,
   10.2262,       358,
   10.2507,       395,
   10.2753,       369,
   10.2998,       405,
   10.3243,       451,
   10.3489,       384,
   10.3734,       468,
   10.3979,       412,
   10.4225,       476,
    10.447,       530,
   10.4716,       473,
   10.4961,       603,
   10.5206,       524,
   10.5452,       492,
   10.5697,       489,
   10.5942,       487,
   10.6188,       559,
   10.6433,       509,
   10.6678,       495,
   10.6924,       554,
   10.7169,       505,
   10.7415,       598,
    10.766,       536,
   10.7905,       542,
   10.8151,       630,
   10.8396,       573,
   10.8641,       633,
   10.8887,       586,
   10.9132,       604,
   10.9377,       647,
   10.9623,       576,
   10.9868,       712,
   11.0113,       628,
   11.0359,       629,
   11.0604,       701,
    11.085,       672,
   11.1095,       750,
    11.134,       782,
   11.1586,       837,
   11.1831,       901,
   11.2076,       939,
   11.2322,      1154,
   11.2567,      1375,
   11.2812,      1453,
   11.3058,      1540,
   11.3303,      1437,
   11.3549,      1504,
   11.3794,      1325,
   11.4039,      1163,
   11.4285,      1035,
    11.453,       990,
   11.4775,       935,
   11.5021,       840,
   11.5266,       798,
   11.5511,       866,
   11.5757,       759,
   11.6002,       818,
   11.6248,       796,
   11.6493,       784,
   11.6738,       810,
   11.6984,       803,
   11.7229,       826,
   11.7474,       830,
    11.772,       780,
   11.7965,       855,
    11.821,       819,
   11.8456,       870,
   11.8701,       866,
   11.8946,       846,
   11.9192,       885,
   11.9437,       849,
   11.9683,       907,
   11.9928,       850,
   12.0173,       948,
   12.0419,       940,
   12.0664,       961,
   12.0909,      1048,
   12.1155,      1148,
     12.14,      1213,
   12.1645,      1309,
   12.1891,      1477,
   12.2136,      1846,
   12.2382,      2050,
   12.2627,      2338,
   12.2872,      2444,
   12.3118,      2276,
   12.3363,      2182,
   12.3608,      2079,
   12.3854,      1810,
   12.4099,      1658,
   12.4344,      1394,
    12.459,      1244,
   12.4835,      1136,
   12.5081,      1031,
   12.5326,      1057,
   12.5571,       963,
   12.5817,       959,
   12.6062,       933,
   12.6307,       983,
   12.6553,       902,
   12.6798,       948,
   12.7043,       920,
   12.7289,       912,
   12.7534,       892,
    12.778,       874,
   12.8025,       924,
    12.827,       898,
   12.8516,       907,
   12.8761,       902,
   12.9006,       893,
   12.9252,       938,
   12.9497,       890,
   12.9742,       886,
   12.9988,       910,
   13.0233,       876,
   13.0478,       900,
   13.0724,       890,
   13.0969,       919,
   13.1215,       890,
    13.146,       940,
   13.1705,       925,
   13.1951,      1027,
   13.2196,      1054,
   13.2441,      1058,
   13.2687,      1318,
   13.2932,      1672,
   13.3177,      2043,
   13.3423,      2153,
   13.3668,      1953,
   13.3914,      1821,
   13.4159,      1722,
   13.4404,      1378,
    13.465,      1218,
   13.4895,      1022,
    13.514,      1020,
   13.5386,       878,
   13.5631,       896,
   13.5876,       925,
   13.6122,       878,
   13.6367,       869,
   13.6613,       864,
   13.6858,       857,
   13.7103,       814,
   13.7349,       828,
   13.7594,       881,
   13.7839,       842,
   13.8085,       887,
    13.833,       869,
   13.8575,       839,
   13.8821,       832,
   13.9066,       842,
   13.9311,       814,
   13.9557,       848,
   13.9802,       818,
   14.0048,       782,
   14.0293,       840,
   14.0538,       811,
   14.0784,       809,
   14.1029,       800,
   14.1274,       831,
    14.152,       783,
   14.1765,       820,
    14.201,       817,
   14.2256,       820,
   14.2501,       817,
   14.2747,       869,
   14.2992,       884,
   14.3237,       908,
   14.3483,       932,
   14.3728,      1006,
   14.3973,       980,
   14.4219,       901,
   14.4464,       840,
   14.4709,       910,
   14.4955,       844,
     14.52,       918,
   14.5446,       891,
   14.5691,       873,
   14.5936,       891,
   14.6182,       902,
   14.6427,       929,
   14.6672,      1003,
   14.6918,      1121,
   14.7163,      1184,
   14.7408,      1389,
   14.7654,      1581,
   14.7899,      1806,
   14.8144,      2074,
    14.839,      2226,
   14.8635,      2094,
   14.8881,      2201,
   14.9126,      2080,
   14.9371,      1893,
   14.9617,      1802,
   14.9862,      1510,
   15.0107,      1274,
   15.0353,      1150,
   15.0598,      1013,
   15.0843,       961,
   15.1089,       928,
   15.1334,       863,
    15.158,       867,
   15.1825,       814,
    15.207,       773,
   15.2316,       806,
   15.2561,       726,
   15.2806,       731,
   15.3052,       744,
   15.3297,       747,
   15.3542,       690,
   15.3788,       708,
   15.4033,       720,
   15.4279,       698,
   15.4524,       710,
   15.4769,       662,
   15.5015,       628,
    15.526,       640,
   15.5505,       676,
   15.5751,       638,
   15.5996,       663,
   15.6241,       693,
   15.6487,       697,
   15.6732,       634,
   15.6977,       617,
   15.7223,       629,
   15.7468,       643,
   15.7714,       629,
   15.7959,       659,
   15.8204,       642,
    15.845,       669,
   15.8695,       640,
    15.894,       637,
   15.9186,       646,
   15.9431,       595,
   15.9676,       666,
   15.9922,       627,
   16.0167,       643,
   16.0413,       663,
   16.0658,       668,
   16.0903,       635,
   16.1149,       629,
   16.1394,       686,
   16.1639,       621,
   16.1885,       675,
    16.213,       668,
   16.2375,       709,
   16.2621,       758,
   16.2866,       768,
   16.3112,       723,
   16.3357,       721,
   16.3602,       734,
   16.3848,       689,
   16.4093,       605,
   16.4338,       597,
   16.4584,       635,
   16.4829,       539,
   16.5074,       582,
    16.532,       559,
   16.5565,       575,
    16.581,       554,
   16.6056,       588,
   16.6301,       577,
   16.6547,       549,
   16.6792,       574,
   16.7037,       577,
   16.7283,       595,
   16.7528,       564,
   16.7773,       551,
   16.8019,       559,
   16.8264,       536,
   16.8509,       621,
   16.8755,       573,
      16.9,       560,
   16.9246,       570,
   16.9491,       569,
   16.9736,       602,
   16.9982,       537,
   17.0227,       567,
   17.0472,       536,
   17.0718,       612,
   17.0963,       523,
   17.1208,       575,
   17.1454,       568,
   17.1699,       566,
   17.1945,       589,
    17.219,       550,
   17.2435,       586,
   17.2681,       517,
   17.2926,       581,
   17.3171,       601,
   17.3417,       641,
   17.3662,       612,
   17.3907,       620,
   17.4153,       647,
   17.4398,       673,
   17.4643,       635,
   17.4889,       711,
   17.5134,       718,
    17.538,       651,
   17.5625,       756,
    17.587,       704,
   17.6116,       717,
   17.6361,       705,
   17.6606,       702,
   17.6852,       738,
   17.7097,       740,
   17.7342,       758,
   17.7588,       897,
   17.7833,       919,
   17.8079,       913,
   17.8324,       845,
   17.8569,       741,
   17.8815,       795,
    17.906,       751,
   17.9305,       739,
   17.9551,       701,
   17.9796,       636,
   18.0041,       625,
   18.0287,       649,
   18.0532,       666,
   18.0778,       646,
   18.1023,       559,
   18.1268,       604,
   18.1514,       598,
   18.1759,       645,
   18.2004,       633,
    18.225,       598,
   18.2495,       617,
    18.274,       643,
   18.2986,       666,
   18.3231,       648,
   18.3476,       671,
   18.3722,       595,
   18.3967,       674,
   18.4213,       632,
   18.4458,       631,
   18.4703,       645,
   18.4949,       605,
   18.5194,       608,
   18.5439,       623,
   18.5685,       607,
    18.593,       638,
   18.6175,       583,
   18.6421,       588,
   18.6666,       582,
   18.6912,       601,
   18.7157,       594,
   18.7402,       653,
   18.7648,       619,
   18.7893,       626,
   18.8138,       623,
   18.8384,       639,
   18.8629,       618,
   18.8874,       655,
    18.912,       607,
   18.9365,       637,
   18.9611,       605,
   18.9856,       614,
   19.0101,       658,
   19.0347,       601,
   19.0592,       635,
   19.0837,       597,
   19.1083,       627,
   19.1328,       631,
   19.1573,       654,
   19.1819,       746,
   19.2064,       682,
    19.231,       772,
   19.2555,       770,
     19.28,       758,
   19.3046,       785,
   19.3291,       772,
   19.3536,       754,
   19.3782,       802,
   19.4027,       880,
   19.4272,       884,
   19.4518,       830,
   19.4763,       823,
   19.5008,       855,
   19.5254,       848,
   19.5499,       863,
   19.5745,       914,
    19.599,      1052,
   19.6235,      1023,
   19.6481,      1228,
   19.6726,      1327,
   19.6971,      1381,
   19.7217,      1428,
   19.7462,      1485,
   19.7707,      1397,
   19.7953,      1336,
   19.8198,      1239,
   19.8444,      1221,
   19.8689,      1059,
   19.8934,       940,
    19.918,       844,
   19.9425,       814,
    19.967,       732,
   19.9916,       711,
   20.0161,       706,
   20.0406,       705,
   20.0652,       658,
   20.0897,       577,
   20.1143,       614,
   20.1388,       617,
   20.1633,       629,
   20.1879,       568,
   20.2124,       595,
   20.2369,       566,
   20.2615,       595,
    20.286,       562,
   20.3105,       578,
   20.3351,       594,
   20.3596,       552,
   20.3841,       615,
   20.4087,       667,
   20.4332,       675,
   20.4578,       630,
   20.4823,       601,
   20.5068,       589,
   20.5314,       565,
   20.5559,       597,
   20.5804,       586,
    20.605,       567,
   20.6295,       583,
    20.654,       572,
   20.6786,       547,
   20.7031,       571,
   20.7277,       551,
   20.7522,       546,
   20.7767,       558,
   20.8013,       516,
   20.8258,       543,
   20.8503,       575,
   20.8749,       567,
   20.8994,       563,
   20.9239,       572,
   20.9485,       552,
    20.973,       537,
   20.9976,       537,
   21.0221,       568,
   21.0466,       598,
   21.0712,       540,
   21.0957,       608,
   21.1202,       726,
   21.1448,       687,
   21.1693,       705,
   21.1938,       671,
   21.2184,       721,
   21.2429,       728,
   21.2674,       824,
    21.292,       886,
   21.3165,       808,
   21.3411,       742,
   21.3656,       710,
   21.3901,       708,
   21.4147,       750,
   21.4392,       738,
   21.4637,       663,
   21.4883,       615,
   21.5128,       619,
   21.5373,       629,
   21.5619,       631,
   21.5864,       664,
    21.611,       632,
   21.6355,       601,
     21.66,       665,
   21.6846,       784,
   21.7091,       855,
   21.7336,       881,
   21.7582,       797,
   21.7827,       789,
   21.8072,       765,
   21.8318,       822,
   21.8563,       875,
   21.8809,       837,
   21.9054,       867,
   21.9299,       888,
   21.9545,       908,
    21.979,       905,
   22.0035,       865,
   22.0281,       871,
   22.0526,       839,
   22.0771,       829,
   22.1017,       877,
   22.1262,       816,
   22.1507,       812,
   22.1753,       719,
   22.1998,       737,
   22.2244,       778,
   22.2489,       840,
   22.2734,       908,
    22.298,       936,
   22.3225,      1093,
    22.347,      1255,
   22.3716,      1246,
   22.3961,      1277,
   22.4206,      1279,
   22.4452,      1199,
   22.4697,      1188,
   22.4943,      1141,
   22.5188,      1062,
   22.5433,      1015,
   22.5679,       924,
   22.5924,       894,
   22.6169,       758,
   22.6415,       700,
    22.666,       669,
   22.6905,       689,
   22.7151,       630,
   22.7396,       640,
   22.7642,       685,
   22.7887,       687,
   22.8132,       653,
   22.8378,       602,
   22.8623,       599,
   22.8868,       587,
   22.9114,       610,
   22.9359,       561,
   22.9604,       589,
    22.985,       570,
   23.0095,       586,
    23.034,       611,
   23.0586,       537,
   23.0831,       549,
   23.1077,       580,
   23.1322,       565,
   23.1567,       616,
   23.1813,       611,
   23.2058,       570,
   23.2303,       576,
   23.2549,       557,
   23.2794,       569,
   23.3039,       573,
   23.3285,       613,
    23.353,       561,
   23.3776,       564,
   23.4021,       559,
   23.4266,       530,
   23.4512,       571,
   23.4757,       569,
   23.5002,       526,
   23.5248,       531,
   23.5493,       549,
   23.5738,       549,
   23.5984,       540,
   23.6229,       552,
   23.6475,       585,
    23.672,       575,
   23.6965,       565,
   23.7211,       542,
   23.7456,       510,
   23.7701,       548,
   23.7947,       531,
   23.8192,       578,
   23.8437,       567,
   23.8683,       578,
   23.8928,       566,
   23.9173,       541,
   23.9419,       546,
   23.9664,       598,
    23.991,       560,
   24.0155,       552,
     24.04,       575,
   24.0646,       561,
   24.0891,       560,
   24.1136,       591,
   24.1382,       575,
   24.1627,       563,
   24.1872,       571,
   24.2118,       604,
   24.2363,       536,
   24.2609,       578,
   24.2854,       567,
   24.3099,       570,
   24.3345,       595,
    24.359,       608,
   24.3835,       593,
   24.4081,       603,
   24.4326,       616,
   24.4571,       621,
   24.4817,       576,
   24.5062,       639,
   24.5308,       603,
   24.5553,       604,
   24.5798,       638,
   24.6044,       636,
   24.6289,       639,
   24.6534,       664,
    24.678,       697,
   24.7025,       732,
    24.727,       717,
   24.7516,       823,
   24.7761,       865,
   24.8006,       854,
   24.8252,       789,
   24.8497,       813,
   24.8743,       806,
   24.8988,       767,
   24.9233,       850,
   24.9479,       735,
   24.9724,       804,
   24.9969,       760,
   25.0215,       725,
    25.046,       652,
   25.0705,       731,
   25.0951,       700,
   25.1196,       670,
   25.1442,       696,
   25.1687,       663,
   25.1932,       676,
   25.2178,       608,
   25.2423,       622,
   25.2668,       609,
   25.2914,       639,
   25.3159,       675,
   25.3404,       607,
    25.365,       631,
   25.3895,       580,
   25.4141,       621,
   25.4386,       691,
   25.4631,       738,
   25.4877,       717,
   25.5122,       650,
   25.5367,       620,
   25.5613,       621,
   25.5858,       614,
   25.6103,       616,
   25.6349,       608,
   25.6594,       595,
   25.6839,       584,
   25.7085,       624,
    25.733,       593,
   25.7576,       598,
   25.7821,       575,
   25.8066,       606,
   25.8312,       605,
   25.8557,       603,
   25.8802,       554,
   25.9048,       562,
   25.9293,       579,
   25.9538,       580,
   25.9784,       558,
   26.0029,       596,
   26.0275,       570,
    26.052,       584,
   26.0765,       555,
   26.1011,       573,
   26.1256,       575,
   26.1501,       531,
   26.1747,       543,
   26.1992,       576,
   26.2237,       575,
   26.2483,       573,
   26.2728,       605,
   26.2974,       589,
   26.3219,       618,
   26.3464,       653,
    26.371,       593,
   26.3955,       617,
     26.42,       667,
   26.4446,       600,
   26.4691,       659,
   26.4936,       626,
   26.5182,       637,
   26.5427,       655,
   26.5673,       638,
   26.5918,       627,
   26.6163,       590,
   26.6409,       686,
   26.6654,       715,
   26.6899,       659,
   26.7145,       656,
    26.739,       635,
   26.7635,       688,
   26.7881,       675,
   26.8126,       726,
   26.8371,       696,
   26.8617,       669,
   26.8862,       632,
   26.9108,       694,
   26.9353,       658,
   26.9598,       676,
   26.9844,       681,
   27.0089,       616,
   27.0334,       630,
    27.058,       671,
   27.0825,       669,
    27.107,       644,
   27.1316,       636,
   27.1561,       687,
   27.1807,       617,
   27.2052,       628,
   27.2297,       616,
   27.2543,       594,
   27.2788,       648,
   27.3033,       594,
   27.3279,       637,
   27.3524,       607,
   27.3769,       581,
   27.4015,       554,
    27.426,       550,
   27.4506,       566,
   27.4751,       568,
   27.4996,       579,
   27.5242,       650,
   27.5487,       595,
   27.5732,       604,
   27.5978,       566,
   27.6223,       615,
   27.6468,       593,
   27.6714,       629,
   27.6959,       643,
   27.7204,       650,
    27.745,       652,
   27.7695,       646,
   27.7941,       667,
   27.8186,       627,
   27.8431,       627,
   27.8677,       666,
   27.8922,       616,
   27.9167,       599,
   27.9413,       607,
   27.9658,       624,
   27.9903,       618,
   28.0149,       568,
   28.0394,       605,
    28.064,       556,
   28.0885,       594,
    28.113,       579,
   28.1376,       603,
   28.1621,       600,
   28.1866,       600,
   28.2112,       571,
   28.2357,       583,
   28.2602,       594,
   28.2848,       607,
   28.3093,       612,
   28.3339,       630,
   28.3584,       623,
   28.3829,       659,
   28.4075,       656,
    28.432,       716,
   28.4565,       642,
   28.4811,       617,
   28.5056,       564,
   28.5301,       582,
   28.5547,       628,
   28.5792,       623,
   28.6037,       637,
   28.6283,       621,
   28.6528,       659,
   28.6774,       606,
   28.7019,       632,
   28.7264,       622,
    28.751,       580,
   28.7755,       635,
      28.8,       632,
   28.8246,       667,
   28.8491,       658,
   28.8736,       616,
   28.8982,       599,
   28.9227,       646,
   28.9473,       606,
   28.9718,       587,
   28.9963,       602,
   29.0209,       619,
   29.0454,       610,
   29.0699,       580,
   29.0945,       600,
    29.119,       558,
   29.1435,       606,
   29.1681,       557,
   29.1926,       586,
   29.2172,       550,
   29.2417,       620,
   29.2662,       597,
   29.2908,       604,
   29.3153,       562,
   29.3398,       578,
   29.3644,       557,
   29.3889,       580,
   29.4134,       542,
    29.438,       572,
   29.4625,       557,
    29.487,       549,
   29.5116,       537,
   29.5361,       588,
   29.5607,       580,
   29.5852,       543,
   29.6097,       537,
   29.6343,       625,
   29.6588,       528,
   29.6833,       595,
   29.7079,       545,
   29.7324,       541,
   29.7569,       533,
   29.7815,       540,
    29.806,       581,
   29.8306,       568,
   29.8551,       583,
   29.8796,       573,
   29.9042,       571,
   29.9287,       608,
   29.9532,       637,
   29.9778,       588,
   30.0023,       632,
   30.0268,       658,
   30.0514,       617,
   30.0759,       659,
   30.1005,       618,
    30.125,       603,
   30.1495,       604,
   30.1741,       602,
   30.1986,       635,
   30.2231,       615,
   30.2477,       642,
   30.2722,       527,
   30.2967,       606,
   30.3213,       598,
   30.3458,       543,
   30.3703,       606,
   30.3949,       603,
   30.4194,       594,
    30.444,       584,
   30.4685,       599,
    30.493,       607,
   30.5176,       589,
   30.5421,       605,
   30.5666,       605,
   30.5912,       621,
   30.6157,       584,
   30.6402,       595,
   30.6648,       605,
   30.6893,       584,
   30.7139,       564,
   30.7384,       572,
   30.7629,       605,
   30.7875,       579,
    30.812,       575,
   30.8365,       581,
   30.8611,       547,
   30.8856,       625,
   30.9101,       587,
   30.9347,       562,
   30.9592,       582,
   30.9838,       534,
   31.0083,       546,
   31.0328,       574,
   31.0574,       552,
   31.0819,       536,
   31.1064,       567,
    31.131,       555,
   31.1555,       560,
     31.18,       577,
   31.2046,       613,
   31.2291,       603,
   31.2536,       601,
   31.2782,       644,
   31.3027,       612,
   31.3273,       648,
   31.3518,       632,
   31.3763,       634,
   31.4009,       599,
   31.4254,       607,
   31.4499,       596,
   31.4745,       569,
    31.499,       592,
   31.5235,       587,
   31.5481,       584,
   31.5726,       577,
   31.5972,       596,
   31.6217,       600,
   31.6462,       623,
   31.6708,       637,
   31.6953,       621,
   31.7198,       613,
   31.7444,       644,
   31.7689,       610,
   31.7934,       604,
    31.818,       648,
   31.8425,       616,
   31.8671,       651,
   31.8916,       642,
   31.9161,       669,
   31.9407,       683,
   31.9652,       641,
   31.9897,       612,
   32.0143,       652,
   32.0388,       653,
   32.0633,       616,
   32.0879,       630,
   32.1124,       601,
   32.1369,       572,
   32.1615,       567,
    32.186,       571,
   32.2106,       594,
   32.2351,       540,
   32.2596,       576,
   32.2842,       543,
   32.3087,       544,
   32.3332,       580,
   32.3578,       519,
   32.3823,       542,
   32.4068,       546,
   32.4314,       536,
   32.4559,       513,
   32.4805,       551,
    32.505,       545,
   32.5295,       548,
   32.5541,       538,
   32.5786,       562,
   32.6031,       545,
   32.6277,       510,
   32.6522,       536,
   32.6767,       547,
   32.7013,       525,
   32.7258,       503,
   32.7504,       483,
   32.7749,       601,
   32.7994,       546,
    32.824,       511,
   32.8485,       511,
    32.873,       530,
   32.8976,       525,
   32.9221,       537,
   32.9466,       483,
   32.9712,       541,
   32.9957,       516,
   33.0203,       538,
   33.0448,       554,
   33.0693,       539,
   33.0939,       492,
   33.1184,       522,
   33.1429,       542,
   33.1675,       525,
    33.192,       513,
   33.2165,       517,
   33.2411,       566,
   33.2656,       491,
   33.2901,       538,
   33.3147,       511,
   33.3392,       544,
   33.3638,       575,
   33.3883,       568,
   33.4128,       494,
   33.4374,       507,
   33.4619,       518,
   33.4864,       537,
    33.511,       521,
   33.5355,       496,
     33.56,       535,
   33.5846,       503,
   33.6091,       503,
   33.6337,       522,
   33.6582,       522,
   33.6827,       505,
   33.7073,       502,
   33.7318,       526,
   33.7563,       525,
   33.7809,       505,
   33.8054,       480,
   33.8299,       508,
   33.8545,       475,
    33.879,       520,
   33.9036,       452,
   33.9281,       526,
   33.9526,       522,
   33.9772,       522,
   34.0017,       485,
   34.0262,       494,
   34.0508,       506,
   34.0753,       475,
   34.0998,       472,
   34.1244,       448,
   34.1489,       495,
   34.1734,       482,
    34.198,       503,
   34.2225,       422,
   34.2471,       479,
   34.2716,       466,
   34.2961,       488,
   34.3207,       458,
   34.3452,       469,
   34.3697,       504,
   34.3943,       505,
   34.4188,       479,
   34.4433,       505,
   34.4679,       531,
   34.4924,       527,
    34.517,       493,
   34.5415,       498,
    34.566,       497,
   34.5906,       502,
   34.6151,       528,
   34.6396,       509,
   34.6642,       510,
   34.6887,       508,
   34.7132,       524,
   34.7378,       465,
   34.7623,       517,
   34.7869,       562,
   34.8114,       556,
   34.8359,       539,
   34.8605,       538,
    34.885,       480,
   34.9095,       484,
   34.9341,       508,
   34.9586,       531,
   34.9831,       510,
   35.0077,       500,
   35.0322,       504,
   35.0567,       474,
   35.0813,       510,
   35.1058,       514,
   35.1304,       514,
   35.1549,       467,
   35.1794,       538,
    35.204,       454,
   35.2285,       497,
    35.253,       445,
   35.2776,       490,
   35.3021,       456,
   35.3266,       470,
   35.3512,       473,
   35.3757,       498,
   35.4003,       487,
   35.4248,       502,
   35.4493,       519,
   35.4739,       452,
   35.4984,       508,
   35.5229,       473,
   35.5475,       436,
    35.572,       523,
   35.5965,       478,
   35.6211,       496,
   35.6456,       487,
   35.6702,       495,
   35.6947,       505,
   35.7192,       540,
   35.7438,       541,
   35.7683,       541,
   35.7928,       503,
   35.8174,       513,
   35.8419,       465,
   35.8664,       505,
    35.891,       495,
   35.9155,       505,
     35.94,       513,
   35.9646,       507,
   35.9891,       541,
   36.0137,       515,
   36.0382,       523,
   36.0627,       506,
   36.0873,       499,
   36.1118,       541,
   36.1363,       530,
   36.1609,       550,
   36.1854,       525,
   36.2099,       525,
   36.2345,       508,
    36.259,       522,
   36.2836,       498,
   36.3081,       524,
   36.3326,       501,
   36.3572,       475,
   36.3817,       496,
   36.4062,       475,
   36.4308,       470,
   36.4553,       456,
   36.4798,       488,
   36.5044,       472,
   36.5289,       419,
   36.5535,       457,
    36.578,       454,
   36.6025,       424,
   36.6271,       437,
   36.6516,       453,
   36.6761,       442,
   36.7007,       431,
   36.7252,       433,
   36.7497,       435,
   36.7743,       447,
   36.7988,       414,
   36.8233,       417,
   36.8479,       398,
   36.8724,       469,
    36.897,       451,
   36.9215,       438,
    36.946,       426,
   36.9706,       421,
   36.9951,       388,
   37.0196,       412,
   37.0442,       429,
   37.0687,       430,
   37.0932,       465,
   37.1178,       414,
   37.1423,       441,
   37.1669,       455,
   37.1914,       416,
   37.2159,       445,
   37.2405,       411,
    37.265,       435,
   37.2895,       431,
   37.3141,       479,
   37.3386,       446,
   37.3631,       400,
   37.3877,       401,
   37.4122,       410,
   37.4368,       406,
   37.4613,       414,
   37.4858,       452,
   37.5104,       398,
   37.5349,       432,
   37.5594,       393,
    37.584,       422,
   37.6085,       428,
    37.633,       429,
   37.6576,       373,
   37.6821,       376,
   37.7066,       420,
   37.7312,       397,
   37.7557,       380,
   37.7803,       342,
   37.8048,       385,
   37.8293,       402,
   37.8539,       375,
   37.8784,       345,
   37.9029,       377,
   37.9275,       388,
    37.952,       373,
   37.9765,       356,
   38.0011,       412,
   38.0256,       386,
   38.0502,       384,
   38.0747,       401,
   38.0992,       391,
   38.1238,       382,
   38.1483,       378,
   38.1728,       416,
   38.1974,       385,
   38.2219,       393,
   38.2464,       390,
    38.271,       363,
   38.2955,       370,
   38.3201,       390,
   38.3446,       382,
   38.3691,       410,
   38.3937,       384,
   38.4182,       380,
   38.4427,       354,
   38.4673,       375,
   38.4918,       376,
   38.5163,       364,
   38.5409,       338,
   38.5654,       368,
   38.5899,       355,
   38.6145,       382,
    38.639,       376,
   38.6636,       379,
   38.6881,       360,
   38.7126,       413,
   38.7372,       413,
   38.7617,       377,
   38.7862,       392,
   38.8108,       392,
   38.8353,       392,
   38.8598,       343,
   38.8844,       411,
   38.9089,       373,
   38.9335,       413,
    38.958,       387,
   38.9825,       435,
   39.0071,       415,
   39.0316,       391,
   39.0561,       447,
   39.0807,       396,
   39.1052,       403,
   39.1297,       401,
   39.1543,       422,
   39.1788,       418,
   39.2034,       405,
   39.2279,       367,
   39.2524,       405,
    39.277,       414,
   39.3015,       387,
    39.326,       447,
   39.3506,       432,
   39.3751,       441,
   39.3996,       386,
   39.4242,       454,
   39.4487,       447,
   39.4732,       428,
   39.4978,       461,
   39.5223,       429,
   39.5469,       416,
   39.5714,       422,
   39.5959,       429,
   39.6205,       473,
    39.645,       440,
   39.6695,       406,
   39.6941,       432,
   39.7186,       437,
   39.7431,       437,
   39.7677,       430,
   39.7922,       434,
   39.8168,       429,
   39.8413,       440,
   39.8658,       448,
   39.8904,       423,
   39.9149,       409,
   39.9394,       415,
    39.964,       435,
   39.9885,       394,
