;RAW4.00
[RawHeader]
Date=03/16/2022
EstimatedTotalTime=633.591
FurtherDQLReading=0
HardwareIndicator=65519
MeasuredTotalTime=633.591
MeasurementFlag=1
NumberOfMeasuredRanges=1
NumberOfRanges=1
Time=12:28:29

[VarInfo]
Type=USER
Flags=0
Value=Lab Manager

[VarInfo]
Type=SAMPLEID
Flags=0
Value=

[VarInfo]
Type=COMMENT
Flags=0
Value=

[VarInfo]
Type=UTF
Flags=0
Value=

[VarInfo]
Type=CREATOR
Flags=0
Value=BrmlToV4Converter

[VarInfo]
Type=CREATOR_VERSION
Flags=0
Value=7.3.1.0

[HardwareConfiguration]
AbsorptionFactor=9999
ActivateAbsorber=0
Alpha1=0.7093
Alpha2=0.71359
AlphaAverage=0.71073
AlphaRatio=0.5
Analyzer=0
Anode=Mo
AntiScatteringSlit=18
BeamOpticsFlags=0
Beta=0.63229
BetaRelativeIntensity=0
DeactivateAbsorber=0
DetectorSlit=9999
DivergenceSlit=0.2
GoniometerControl=0
GoniometerDiameter=560
GoniometerModel=512
GoniometerStage=7
Monochromator=0
NearSampleSlit=9999
PrimarySollerSlit=2.5
SampleChanger=0
SecondSollerSlit=9999
SynchronousAxis=0
ThinFilmAttachment=9999
WaveUnit=A

[RangeHeader]
ActuallyUsedLambda=0.71073
AdditionalDetectorMask=257
DataRecordLength=4
DelayTime=0
DisplayPlaneNumber=0
EstimatedScanTime=634
ExtraParametersMask=0
GeneratorCurrent=40
GeneratorVoltage=50
Increment=0.0245361
Increment3=0
NumberOfCompletedData=1427
NumberOfCounts=1
NumberOfDetectors=0
NumberOfDrives=2
NumberOfEncoderDrives=0
NumberOfMeasuredData=1427
NumberOfVaryingParameters=0
RangeStartTime=0
RotationSpeed=60
ScanMode=1
ScanType=Locked Coupled
SimulatedMeasConditions=0
SlitChangerIn=0
SmootingWidth=0
Start=5
Steps=1427
SynchronousRotation=0
Time=76.8

[VarInfo]
Type=PSD_DISCRIM
Flags=0
Value=0.488;0.518

[PSD]
ActualTwoTheta=9999
FirstUsedChannel=0
FixedPSD=0
PSDOpening=2.94433
PSDType=5

[Drive]
DriveFlags=1
DriveName=2Theta
DriveNumber=2
DriveOffset=0
OffsetIndex=0
OscillationAmplitude=0
OscillationSpeed=0
StartPosition=5

[Drive]
DriveFlags=1
DriveName=Theta
DriveNumber=1
DriveOffset=0
OffsetIndex=0
OscillationAmplitude=0
OscillationSpeed=0
StartPosition=2.5

[Data]
     Angle,       PSD,
         5,        47,
   5.02454,       135,
   5.04907,       100,
   5.07361,       102,
   5.09814,       131,
   5.12268,        81,
   5.14722,       129,
   5.17175,       106,
   5.19629,       114,
   5.22083,       141,
   5.24536,        69,
    5.2699,       137,
   5.29443,       117,
   5.31897,        87,
   5.34351,       129,
   5.36804,        62,
   5.39258,       125,
   5.41711,       122,
   5.44165,       115,
   5.46619,       153,
   5.49072,        88,
   5.51526,       142,
   5.53979,       110,
   5.56433,        96,
   5.58887,       157,
    5.6134,        73,
   5.63794,       162,
   5.66248,       111,
   5.68701,       102,
   5.71155,       149,
   5.73608,        81,
   5.76062,       157,
   5.78516,       124,
   5.80969,       106,
   5.83423,       153,
   5.85876,       104,
    5.8833,       140,
   5.90784,       117,
   5.93237,       100,
   5.95691,       137,
   5.98144,        90,
   6.00598,       156,
   6.03052,       126,
   6.05505,        99,
   6.07959,       140,
   6.10413,        80,
   6.12866,       148,
    6.1532,       121,
   6.17773,       111,
   6.20227,       130,
   6.22681,        80,
   6.25134,       157,
   6.27588,       126,
   6.30041,        90,
   6.32495,       133,
   6.34949,        87,
   6.37402,       126,
   6.39856,       118,
    6.4231,        97,
   6.44763,       143,
   6.47217,        87,
    6.4967,       155,
   6.52124,       110,
   6.54578,       113,
   6.57031,       139,
   6.59485,        67,
   6.61938,       120,
   6.64392,       107,
   6.66846,       113,
   6.69299,       149,
   6.71753,        82,
   6.74206,       145,
    6.7666,       120,
   6.79114,       116,
   6.81567,       153,
   6.84021,        71,
   6.86475,       150,
   6.88928,       120,
   6.91382,        94,
   6.93835,       155,
   6.96289,        87,
   6.98743,       160,
   7.01196,       130,
    7.0365,       108,
   7.06103,       120,
   7.08557,        90,
   7.11011,       145,
   7.13464,       101,
   7.15918,        94,
   7.18371,       151,
   7.20825,       100,
   7.23279,       131,
   7.25732,        99,
   7.28186,       100,
    7.3064,       147,
   7.33093,       100,
   7.35547,       126,
      7.38,        99,
   7.40454,       118,
   7.42908,       157,
   7.45361,        68,
   7.47815,       137,
   7.50268,       116,
   7.52722,        96,
   7.55176,       145,
   7.57629,        82,
   7.60083,       154,
   7.62536,       102,
    7.6499,       114,
   7.67444,       147,
   7.69897,        86,
   7.72351,       166,
   7.74805,       148,
   7.77258,       115,
   7.79712,       155,
   7.82165,        82,
   7.84619,       155,
   7.87073,       119,
   7.89526,       126,
    7.9198,       180,
   7.94433,       110,
   7.96887,       165,
   7.99341,       165,
   8.01794,       130,
   8.04248,       155,
   8.06702,       101,
   8.09155,       148,
   8.11609,       110,
   8.14062,       122,
   8.16516,       174,
    8.1897,       102,
   8.21423,       150,
   8.23877,       143,
    8.2633,       118,
   8.28784,       176,
   8.31238,        76,
   8.33691,       169,
   8.36145,       152,
   8.38598,       118,
   8.41052,       177,
   8.43506,       109,
   8.45959,       191,
   8.48413,       145,
   8.50867,       120,
    8.5332,       175,
   8.55774,       101,
   8.58227,       173,
   8.60681,       158,
   8.63135,       133,
   8.65588,       224,
   8.68042,       107,
   8.70495,       156,
   8.72949,       152,
   8.75403,       160,
   8.77856,       208,
    8.8031,       133,
   8.82763,       203,
   8.85217,       164,
   8.87671,       146,
   8.90124,       200,
   8.92578,       115,
   8.95032,       203,
   8.97485,       174,
   8.99939,       179,
   9.02392,       208,
   9.04846,       148,
     9.073,       193,
   9.09753,       182,
   9.12207,       167,
    9.1466,       242,
   9.17114,       130,
   9.19568,       209,
   9.22021,       178,
   9.24475,       187,
   9.26929,       227,
   9.29382,       162,
   9.31836,       237,
   9.34289,       210,
   9.36743,       167,
   9.39197,       267,
    9.4165,       162,
   9.44104,       286,
   9.46557,       263,
   9.49011,       247,
   9.51465,       305,
   9.53918,       253,
   9.56372,       326,
   9.58825,       269,
   9.61279,       229,
   9.63733,       289,
   9.66186,       162,
    9.6864,       259,
   9.71094,       242,
   9.73547,       223,
   9.76001,       296,
   9.78454,       184,
   9.80908,       277,
   9.83362,       268,
   9.85815,       215,
   9.88269,       307,
   9.90722,       227,
   9.93176,       287,
    9.9563,       283,
   9.98083,       267,
   10.0054,       322,
   10.0299,       243,
   10.0544,       342,
    10.079,       317,
   10.1035,       303,
    10.128,       369,
   10.1526,       280,
   10.1771,       371,
   10.2017,       312,
   10.2262,       339,
   10.2507,       395,
   10.2753,       312,
   10.2998,       399,
   10.3243,       366,
   10.3489,       388,
   10.3734,       465,
   10.3979,       371,
   10.4225,       508,
    10.447,       478,
   10.4716,       444,
   10.4961,       597,
   10.5206,       444,
   10.5452,       513,
   10.5697,       487,
   10.5942,       480,
   10.6188,       535,
   10.6433,       467,
   10.6678,       516,
   10.6924,       474,
   10.7169,       533,
   10.7415,       620,
    10.766,       530,
   10.7905,       565,
   10.8151,       591,
   10.8396,       597,
   10.8641,       657,
   10.8887,       596,
   10.9132,       648,
   10.9377,       620,
   10.9623,       578,
   10.9868,       703,
   11.0113,       616,
   11.0359,       741,
   11.0604,       727,
    11.085,       712,
   11.1095,       820,
    11.134,       805,
   11.1586,       980,
   11.1831,       964,
   11.2076,      1066,
   11.2322,      1261,
   11.2567,      1341,
   11.2812,      1504,
   11.3058,      1514,
   11.3303,      1430,
   11.3549,      1454,
   11.3794,      1254,
   11.4039,      1152,
   11.4285,      1018,
    11.453,       962,
   11.4775,       886,
   11.5021,       842,
   11.5266,       822,
   11.5511,       816,
   11.5757,       875,
   11.6002,       841,
   11.6248,       760,
   11.6493,       801,
   11.6738,       818,
   11.6984,       867,
   11.7229,       896,
   11.7474,       809,
    11.772,       830,
   11.7965,       870,
    11.821,       826,
   11.8456,       846,
   11.8701,       908,
   11.8946,       922,
   11.9192,       912,
   11.9437,       891,
   11.9683,       932,
   11.9928,       942,
   12.0173,       958,
   12.0419,      1001,
   12.0664,      1063,
   12.0909,      1072,
   12.1155,      1110,
     12.14,      1285,
   12.1645,      1427,
   12.1891,      1716,
   12.2136,      1969,
   12.2382,      2253,
   12.2627,      2380,
   12.2872,      2377,
   12.3118,      2282,
   12.3363,      2051,
   12.3608,      1908,
   12.3854,      1695,
   12.4099,      1507,
   12.4344,      1250,
    12.459,      1165,
   12.4835,      1178,
   12.5081,      1002,
   12.5326,      1053,
   12.5571,      1005,
   12.5817,      1013,
   12.6062,       991,
   12.6307,       980,
   12.6553,       878,
   12.6798,       917,
   12.7043,       993,
   12.7289,       951,
   12.7534,       913,
    12.778,       906,
   12.8025,       935,
    12.827,       995,
   12.8516,       957,
   12.8761,       931,
   12.9006,       882,
   12.9252,       900,
   12.9497,       929,
   12.9742,       942,
   12.9988,       971,
   13.0233,       925,
   13.0478,       901,
   13.0724,       930,
   13.0969,       906,
   13.1215,       953,
    13.146,      1029,
   13.1705,      1066,
   13.1951,      1036,
   13.2196,      1147,
   13.2441,      1255,
   13.2687,      1468,
   13.2932,      1924,
   13.3177,      2075,
   13.3423,      1968,
   13.3668,      1838,
   13.3914,      1764,
   13.4159,      1528,
   13.4404,      1276,
    13.465,      1121,
   13.4895,      1027,
    13.514,      1006,
   13.5386,       963,
   13.5631,       887,
   13.5876,       946,
   13.6122,       899,
   13.6367,       883,
   13.6613,       918,
   13.6858,       895,
   13.7103,       904,
   13.7349,       923,
   13.7594,       908,
   13.7839,       852,
   13.8085,       877,
    13.833,       932,
   13.8575,       870,
   13.8821,       826,
   13.9066,       885,
   13.9311,       926,
   13.9557,       859,
   13.9802,       858,
   14.0048,       840,
   14.0293,       831,
   14.0538,       873,
   14.0784,       856,
   14.1029,       886,
   14.1274,       894,
    14.152,       863,
   14.1765,       903,
    14.201,       869,
   14.2256,       839,
   14.2501,       949,
   14.2747,       845,
   14.2992,       938,
   14.3237,       967,
   14.3483,      1001,
   14.3728,      1011,
   14.3973,       904,
   14.4219,       924,
   14.4464,       910,
   14.4709,       886,
   14.4955,       898,
     14.52,       881,
   14.5446,       881,
   14.5691,       926,
   14.5936,       982,
   14.6182,       943,
   14.6427,      1031,
   14.6672,      1145,
   14.6918,      1169,
   14.7163,      1382,
   14.7408,      1514,
   14.7654,      1700,
   14.7899,      1942,
   14.8144,      2065,
    14.839,      2175,
   14.8635,      2129,
   14.8881,      2049,
   14.9126,      1876,
   14.9371,      1715,
   14.9617,      1487,
   14.9862,      1320,
   15.0107,      1228,
   15.0353,      1083,
   15.0598,      1006,
   15.0843,       941,
   15.1089,       905,
   15.1334,       912,
    15.158,       912,
   15.1825,       815,
    15.207,       822,
   15.2316,       780,
   15.2561,       770,
   15.2806,       752,
   15.3052,       763,
   15.3297,       766,
   15.3542,       718,
   15.3788,       766,
   15.4033,       712,
   15.4279,       705,
   15.4524,       720,
   15.4769,       737,
   15.5015,       704,
    15.526,       669,
   15.5505,       705,
   15.5751,       705,
   15.5996,       757,
   15.6241,       705,
   15.6487,       701,
   15.6732,       699,
   15.6977,       691,
   15.7223,       689,
   15.7468,       677,
   15.7714,       684,
   15.7959,       697,
   15.8204,       699,
    15.845,       686,
   15.8695,       683,
    15.894,       668,
   15.9186,       658,
   15.9431,       673,
   15.9676,       650,
   15.9922,       635,
   16.0167,       678,
   16.0413,       666,
   16.0658,       719,
   16.0903,       618,
   16.1149,       621,
   16.1394,       629,
   16.1639,       646,
   16.1885,       676,
    16.213,       763,
   16.2375,       761,
   16.2621,       775,
   16.2866,       744,
   16.3112,       737,
   16.3357,       712,
   16.3602,       697,
   16.3848,       692,
   16.4093,       622,
   16.4338,       655,
   16.4584,       655,
   16.4829,       560,
   16.5074,       591,
    16.532,       572,
   16.5565,       603,
    16.581,       637,
   16.6056,       618,
   16.6301,       621,
   16.6547,       601,
   16.6792,       615,
   16.7037,       591,
   16.7283,       614,
   16.7528,       606,
   16.7773,       570,
   16.8019,       578,
   16.8264,       610,
   16.8509,       574,
   16.8755,       611,
      16.9,       617,
   16.9246,       545,
   16.9491,       578,
   16.9736,       551,
   16.9982,       575,
   17.0227,       577,
   17.0472,       600,
   17.0718,       600,
   17.0963,       586,
   17.1208,       615,
   17.1454,       571,
   17.1699,       564,
   17.1945,       591,
    17.219,       592,
   17.2435,       610,
   17.2681,       620,
   17.2926,       637,
   17.3171,       652,
   17.3417,       657,
   17.3662,       633,
   17.3907,       648,
   17.4153,       632,
   17.4398,       660,
   17.4643,       705,
   17.4889,       666,
   17.5134,       714,
    17.538,       738,
   17.5625,       720,
    17.587,       708,
   17.6116,       711,
   17.6361,       719,
   17.6606,       738,
   17.6852,       738,
   17.7097,       803,
   17.7342,       861,
   17.7588,       933,
   17.7833,       955,
   17.8079,       845,
   17.8324,       825,
   17.8569,       819,
   17.8815,       778,
    17.906,       724,
   17.9305,       705,
   17.9551,       708,
   17.9796,       624,
   18.0041,       653,
   18.0287,       638,
   18.0532,       642,
   18.0778,       635,
   18.1023,       656,
   18.1268,       620,
   18.1514,       621,
   18.1759,       658,
   18.2004,       594,
    18.225,       621,
   18.2495,       611,
    18.274,       636,
   18.2986,       637,
   18.3231,       607,
   18.3476,       690,
   18.3722,       644,
   18.3967,       597,
   18.4213,       602,
   18.4458,       626,
   18.4703,       627,
   18.4949,       638,
   18.5194,       562,
   18.5439,       683,
   18.5685,       614,
    18.593,       628,
   18.6175,       628,
   18.6421,       624,
   18.6666,       603,
   18.6912,       653,
   18.7157,       612,
   18.7402,       648,
   18.7648,       696,
   18.7893,       658,
   18.8138,       668,
   18.8384,       669,
   18.8629,       665,
   18.8874,       608,
    18.912,       645,
   18.9365,       625,
   18.9611,       638,
   18.9856,       651,
   19.0101,       649,
   19.0347,       659,
   19.0592,       657,
   19.0837,       609,
   19.1083,       654,
   19.1328,       665,
   19.1573,       748,
   19.1819,       773,
   19.2064,       765,
    19.231,       790,
   19.2555,       712,
     19.28,       659,
   19.3046,       728,
   19.3291,       743,
   19.3536,       777,
   19.3782,       829,
   19.4027,       927,
   19.4272,       813,
   19.4518,       805,
   19.4763,       812,
   19.5008,       841,
   19.5254,       894,
   19.5499,       861,
   19.5745,       979,
    19.599,      1034,
   19.6235,      1142,
   19.6481,      1287,
   19.6726,      1358,
   19.6971,      1454,
   19.7217,      1417,
   19.7462,      1327,
   19.7707,      1337,
   19.7953,      1223,
   19.8198,      1187,
   19.8444,      1162,
   19.8689,      1004,
   19.8934,       868,
    19.918,       815,
   19.9425,       815,
    19.967,       701,
   19.9916,       725,
   20.0161,       689,
   20.0406,       682,
   20.0652,       690,
   20.0897,       628,
   20.1143,       572,
   20.1388,       588,
   20.1633,       667,
   20.1879,       585,
   20.2124,       647,
   20.2369,       625,
   20.2615,       614,
    20.286,       622,
   20.3105,       610,
   20.3351,       648,
   20.3596,       639,
   20.3841,       655,
   20.4087,       695,
   20.4332,       692,
   20.4578,       652,
   20.4823,       636,
   20.5068,       638,
   20.5314,       610,
   20.5559,       613,
   20.5804,       617,
    20.605,       617,
   20.6295,       598,
    20.654,       638,
   20.6786,       603,
   20.7031,       591,
   20.7277,       624,
   20.7522,       569,
   20.7767,       546,
   20.8013,       574,
   20.8258,       590,
   20.8503,       600,
   20.8749,       566,
   20.8994,       647,
   20.9239,       625,
   20.9485,       614,
    20.973,       602,
   20.9976,       643,
   21.0221,       655,
   21.0466,       613,
   21.0712,       656,
   21.0957,       705,
   21.1202,       743,
   21.1448,       708,
   21.1693,       697,
   21.1938,       695,
   21.2184,       727,
   21.2429,       778,
   21.2674,       918,
    21.292,       900,
   21.3165,       824,
   21.3411,       690,
   21.3656,       726,
   21.3901,       730,
   21.4147,       708,
   21.4392,       685,
   21.4637,       639,
   21.4883,       627,
   21.5128,       571,
   21.5373,       651,
   21.5619,       637,
   21.5864,       606,
    21.611,       692,
   21.6355,       716,
     21.66,       795,
   21.6846,       772,
   21.7091,       847,
   21.7336,       901,
   21.7582,       816,
   21.7827,       837,
   21.8072,       817,
   21.8318,       839,
   21.8563,       815,
   21.8809,       908,
   21.9054,       881,
   21.9299,       896,
   21.9545,       936,
    21.979,       883,
   22.0035,       893,
   22.0281,       916,
   22.0526,       893,
   22.0771,       875,
   22.1017,       766,
   22.1262,       763,
   22.1507,       775,
   22.1753,       784,
   22.1998,       789,
   22.2244,       880,
   22.2489,       862,
   22.2734,       968,
    22.298,      1046,
   22.3225,      1159,
    22.347,      1270,
   22.3716,      1222,
   22.3961,      1242,
   22.4206,      1188,
   22.4452,      1132,
   22.4697,      1148,
   22.4943,      1125,
   22.5188,      1027,
   22.5433,       948,
   22.5679,       832,
   22.5924,       838,
   22.6169,       746,
   22.6415,       753,
    22.666,       689,
   22.6905,       701,
   22.7151,       692,
   22.7396,       650,
   22.7642,       610,
   22.7887,       689,
   22.8132,       662,
   22.8378,       625,
   22.8623,       634,
   22.8868,       606,
   22.9114,       615,
   22.9359,       614,
   22.9604,       606,
    22.985,       586,
   23.0095,       580,
    23.034,       556,
   23.0586,       583,
   23.0831,       540,
   23.1077,       584,
   23.1322,       575,
   23.1567,       582,
   23.1813,       583,
   23.2058,       614,
   23.2303,       572,
   23.2549,       571,
   23.2794,       590,
   23.3039,       550,
   23.3285,       538,
    23.353,       600,
   23.3776,       572,
   23.4021,       604,
   23.4266,       535,
   23.4512,       544,
   23.4757,       541,
   23.5002,       558,
   23.5248,       546,
   23.5493,       545,
   23.5738,       564,
   23.5984,       600,
   23.6229,       594,
   23.6475,       531,
    23.672,       547,
   23.6965,       584,
   23.7211,       577,
   23.7456,       576,
   23.7701,       538,
   23.7947,       575,
   23.8192,       604,
   23.8437,       582,
   23.8683,       625,
   23.8928,       625,
   23.9173,       592,
   23.9419,       618,
   23.9664,       574,
    23.991,       601,
   24.0155,       581,
     24.04,       587,
   24.0646,       606,
   24.0891,       582,
   24.1136,       591,
   24.1382,       607,
   24.1627,       577,
   24.1872,       600,
   24.2118,       570,
   24.2363,       542,
   24.2609,       610,
   24.2854,       578,
   24.3099,       596,
   24.3345,       591,
    24.359,       642,
   24.3835,       572,
   24.4081,       622,
   24.4326,       570,
   24.4571,       616,
   24.4817,       620,
   24.5062,       571,
   24.5308,       631,
   24.5553,       629,
   24.5798,       609,
   24.6044,       683,
   24.6289,       674,
   24.6534,       726,
    24.678,       735,
   24.7025,       780,
    24.727,       805,
   24.7516,       790,
   24.7761,       855,
   24.8006,       872,
   24.8252,       850,
   24.8497,       870,
   24.8743,       880,
   24.8988,       825,
   24.9233,       746,
   24.9479,       830,
   24.9724,       758,
   24.9969,       722,
   25.0215,       755,
    25.046,       743,
   25.0705,       778,
   25.0951,       743,
   25.1196,       711,
   25.1442,       680,
   25.1687,       649,
   25.1932,       665,
   25.2178,       630,
   25.2423,       701,
   25.2668,       607,
   25.2914,       692,
   25.3159,       607,
   25.3404,       629,
    25.365,       607,
   25.3895,       645,
   25.4141,       675,
   25.4386,       740,
   25.4631,       675,
   25.4877,       681,
   25.5122,       627,
   25.5367,       666,
   25.5613,       671,
   25.5858,       655,
   25.6103,       651,
   25.6349,       721,
   25.6594,       663,
   25.6839,       612,
   25.7085,       640,
    25.733,       641,
   25.7576,       569,
   25.7821,       637,
   25.8066,       594,
   25.8312,       613,
   25.8557,       603,
   25.8802,       618,
   25.9048,       607,
   25.9293,       588,
   25.9538,       577,
   25.9784,       614,
   26.0029,       600,
   26.0275,       603,
    26.052,       640,
   26.0765,       588,
   26.1011,       622,
   26.1256,       636,
   26.1501,       622,
   26.1747,       595,
   26.1992,       615,
   26.2237,       618,
   26.2483,       630,
   26.2728,       601,
   26.2974,       601,
   26.3219,       648,
   26.3464,       584,
    26.371,       606,
   26.3955,       585,
     26.42,       622,
   26.4446,       649,
   26.4691,       673,
   26.4936,       599,
   26.5182,       678,
   26.5427,       660,
   26.5673,       676,
   26.5918,       670,
   26.6163,       650,
   26.6409,       666,
   26.6654,       686,
   26.6899,       699,
   26.7145,       640,
    26.739,       630,
   26.7635,       618,
   26.7881,       690,
   26.8126,       722,
   26.8371,       686,
   26.8617,       670,
   26.8862,       715,
   26.9108,       694,
   26.9353,       714,
   26.9598,       712,
   26.9844,       691,
   27.0089,       702,
   27.0334,       704,
    27.058,       618,
   27.0825,       612,
    27.107,       623,
   27.1316,       633,
   27.1561,       639,
   27.1807,       626,
   27.2052,       597,
   27.2297,       598,
   27.2543,       657,
   27.2788,       644,
   27.3033,       600,
   27.3279,       571,
   27.3524,       563,
   27.3769,       595,
   27.4015,       575,
    27.426,       584,
   27.4506,       608,
   27.4751,       634,
   27.4996,       590,
   27.5242,       605,
   27.5487,       590,
   27.5732,       582,
   27.5978,       631,
   27.6223,       625,
   27.6468,       632,
   27.6714,       608,
   27.6959,       631,
   27.7204,       676,
    27.745,       661,
   27.7695,       657,
   27.7941,       678,
   27.8186,       684,
   27.8431,       646,
   27.8677,       636,
   27.8922,       659,
   27.9167,       633,
   27.9413,       613,
   27.9658,       608,
   27.9903,       626,
   28.0149,       614,
   28.0394,       607,
    28.064,       611,
   28.0885,       546,
    28.113,       596,
   28.1376,       606,
   28.1621,       585,
   28.1866,       649,
   28.2112,       604,
   28.2357,       621,
   28.2602,       644,
   28.2848,       573,
   28.3093,       672,
   28.3339,       597,
   28.3584,       612,
   28.3829,       676,
   28.4075,       678,
    28.432,       693,
   28.4565,       701,
   28.4811,       590,
   28.5056,       603,
   28.5301,       634,
   28.5547,       597,
   28.5792,       688,
   28.6037,       652,
   28.6283,       643,
   28.6528,       650,
   28.6774,       631,
   28.7019,       631,
   28.7264,       630,
    28.751,       593,
   28.7755,       692,
      28.8,       656,
   28.8246,       678,
   28.8491,       657,
   28.8736,       650,
   28.8982,       614,
   28.9227,       639,
   28.9473,       642,
   28.9718,       569,
   28.9963,       633,
   29.0209,       585,
   29.0454,       613,
   29.0699,       622,
   29.0945,       624,
    29.119,       605,
   29.1435,       586,
   29.1681,       591,
   29.1926,       609,
   29.2172,       606,
   29.2417,       624,
   29.2662,       589,
   29.2908,       571,
   29.3153,       556,
   29.3398,       593,
   29.3644,       604,
   29.3889,       607,
   29.4134,       631,
    29.438,       576,
   29.4625,       588,
    29.487,       565,
   29.5116,       599,
   29.5361,       599,
   29.5607,       579,
   29.5852,       579,
   29.6097,       568,
   29.6343,       624,
   29.6588,       628,
   29.6833,       588,
   29.7079,       592,
   29.7324,       621,
   29.7569,       578,
   29.7815,       564,
    29.806,       603,
   29.8306,       607,
   29.8551,       572,
   29.8796,       587,
   29.9042,       633,
   29.9287,       626,
   29.9532,       649,
   29.9778,       641,
   30.0023,       647,
   30.0268,       600,
   30.0514,       683,
   30.0759,       674,
   30.1005,       624,
    30.125,       632,
   30.1495,       610,
   30.1741,       639,
   30.1986,       667,
   30.2231,       670,
   30.2477,       618,
   30.2722,       639,
   30.2967,       615,
   30.3213,       600,
   30.3458,       607,
   30.3703,       605,
   30.3949,       607,
   30.4194,       582,
    30.444,       581,
   30.4685,       581,
    30.493,       618,
   30.5176,       671,
   30.5421,       583,
   30.5666,       624,
   30.5912,       644,
   30.6157,       607,
   30.6402,       566,
   30.6648,       589,
   30.6893,       605,
   30.7139,       572,
   30.7384,       613,
   30.7629,       569,
   30.7875,       606,
    30.812,       565,
   30.8365,       590,
   30.8611,       575,
   30.8856,       595,
   30.9101,       566,
   30.9347,       569,
   30.9592,       600,
   30.9838,       588,
   31.0083,       575,
   31.0328,       582,
   31.0574,       547,
   31.0819,       579,
   31.1064,       596,
    31.131,       593,
   31.1555,       614,
     31.18,       605,
   31.2046,       612,
   31.2291,       622,
   31.2536,       593,
   31.2782,       678,
   31.3027,       619,
   31.3273,       596,
   31.3518,       618,
   31.3763,       622,
   31.4009,       644,
   31.4254,       630,
   31.4499,       630,
   31.4745,       624,
    31.499,       605,
   31.5235,       639,
   31.5481,       593,
   31.5726,       616,
   31.5972,       594,
   31.6217,       598,
   31.6462,       589,
   31.6708,       597,
   31.6953,       609,
   31.7198,       635,
   31.7444,       675,
   31.7689,       582,
   31.7934,       629,
    31.818,       611,
   31.8425,       648,
   31.8671,       661,
   31.8916,       692,
   31.9161,       664,
   31.9407,       630,
   31.9652,       668,
   31.9897,       609,
   32.0143,       651,
   32.0388,       603,
   32.0633,       627,
   32.0879,       620,
   32.1124,       632,
   32.1369,       596,
   32.1615,       554,
    32.186,       590,
   32.2106,       579,
   32.2351,       599,
   32.2596,       582,
   32.2842,       574,
   32.3087,       533,
   32.3332,       546,
   32.3578,       540,
   32.3823,       566,
   32.4068,       551,
   32.4314,       506,
   32.4559,       525,
   32.4805,       517,
    32.505,       500,
   32.5295,       564,
   32.5541,       545,
   32.5786,       540,
   32.6031,       578,
   32.6277,       550,
   32.6522,       566,
   32.6767,       556,
   32.7013,       522,
   32.7258,       551,
   32.7504,       551,
   32.7749,       498,
   32.7994,       532,
    32.824,       591,
   32.8485,       513,
    32.873,       558,
   32.8976,       594,
   32.9221,       567,
   32.9466,       521,
   32.9712,       509,
   32.9957,       558,
   33.0203,       538,
   33.0448,       538,
   33.0693,       549,
   33.0939,       561,
   33.1184,       569,
   33.1429,       521,
   33.1675,       537,
    33.192,       561,
   33.2165,       513,
   33.2411,       527,
   33.2656,       571,
   33.2901,       543,
   33.3147,       500,
   33.3392,       550,
   33.3638,       533,
   33.3883,       531,
   33.4128,       509,
   33.4374,       505,
   33.4619,       526,
   33.4864,       489,
    33.511,       548,
   33.5355,       510,
     33.56,       512,
   33.5846,       518,
   33.6091,       513,
   33.6337,       530,
   33.6582,       527,
   33.6827,       506,
   33.7073,       483,
   33.7318,       497,
   33.7563,       509,
   33.7809,       518,
   33.8054,       492,
   33.8299,       514,
   33.8545,       503,
    33.879,       500,
   33.9036,       511,
   33.9281,       501,
   33.9526,       469,
   33.9772,       496,
   34.0017,       485,
   34.0262,       503,
   34.0508,       520,
   34.0753,       497,
   34.0998,       496,
   34.1244,       535,
   34.1489,       491,
   34.1734,       495,
    34.198,       516,
   34.2225,       491,
   34.2471,       523,
   34.2716,       519,
   34.2961,       521,
   34.3207,       517,
   34.3452,       479,
   34.3697,       493,
   34.3943,       516,
   34.4188,       511,
   34.4433,       506,
   34.4679,       518,
   34.4924,       505,
    34.517,       501,
   34.5415,       537,
    34.566,       510,
   34.5906,       499,
   34.6151,       481,
   34.6396,       531,
   34.6642,       543,
   34.6887,       531,
   34.7132,       527,
   34.7378,       516,
   34.7623,       551,
   34.7869,       569,
   34.8114,       531,
   34.8359,       512,
   34.8605,       506,
    34.885,       527,
   34.9095,       481,
   34.9341,       516,
   34.9586,       497,
   34.9831,       528,
   35.0077,       526,
   35.0322,       494,
   35.0567,       453,
   35.0813,       494,
   35.1058,       490,
   35.1304,       490,
   35.1549,       507,
   35.1794,       529,
    35.204,       439,
   35.2285,       496,
    35.253,       505,
   35.2776,       491,
   35.3021,       477,
   35.3266,       510,
   35.3512,       474,
   35.3757,       491,
   35.4003,       496,
   35.4248,       488,
   35.4493,       482,
   35.4739,       493,
   35.4984,       493,
   35.5229,       524,
   35.5475,       489,
    35.572,       480,
   35.5965,       494,
   35.6211,       507,
   35.6456,       486,
   35.6702,       477,
   35.6947,       545,
   35.7192,       534,
   35.7438,       474,
   35.7683,       533,
   35.7928,       518,
   35.8174,       529,
   35.8419,       546,
   35.8664,       518,
    35.891,       542,
   35.9155,       500,
     35.94,       502,
   35.9646,       545,
   35.9891,       524,
   36.0137,       532,
   36.0382,       495,
   36.0627,       499,
   36.0873,       491,
   36.1118,       521,
   36.1363,       492,
   36.1609,       462,
   36.1854,       509,
   36.2099,       518,
   36.2345,       535,
    36.259,       465,
   36.2836,       489,
   36.3081,       528,
   36.3326,       525,
   36.3572,       497,
   36.3817,       485,
   36.4062,       467,
   36.4308,       467,
   36.4553,       482,
   36.4798,       439,
   36.5044,       446,
   36.5289,       465,
   36.5535,       436,
    36.578,       417,
   36.6025,       424,
   36.6271,       463,
   36.6516,       436,
   36.6761,       447,
   36.7007,       461,
   36.7252,       406,
   36.7497,       475,
   36.7743,       427,
   36.7988,       416,
   36.8233,       440,
   36.8479,       421,
   36.8724,       416,
    36.897,       422,
   36.9215,       427,
    36.946,       428,
   36.9706,       423,
   36.9951,       417,
   37.0196,       389,
   37.0442,       412,
   37.0687,       407,
   37.0932,       401,
   37.1178,       464,
   37.1423,       470,
   37.1669,       450,
   37.1914,       424,
   37.2159,       427,
   37.2405,       405,
    37.265,       462,
   37.2895,       461,
   37.3141,       458,
   37.3386,       434,
   37.3631,       433,
   37.3877,       454,
   37.4122,       469,
   37.4368,       399,
   37.4613,       443,
   37.4858,       379,
   37.5104,       447,
   37.5349,       433,
   37.5594,       392,
    37.584,       430,
   37.6085,       382,
    37.633,       425,
   37.6576,       415,
   37.6821,       430,
   37.7066,       408,
   37.7312,       386,
   37.7557,       391,
   37.7803,       422,
   37.8048,       357,
   37.8293,       405,
   37.8539,       418,
   37.8784,       402,
   37.9029,       364,
   37.9275,       417,
    37.952,       377,
   37.9765,       394,
   38.0011,       452,
   38.0256,       397,
   38.0502,       411,
   38.0747,       407,
   38.0992,       396,
   38.1238,       371,
   38.1483,       370,
   38.1728,       377,
   38.1974,       430,
   38.2219,       393,
   38.2464,       365,
    38.271,       381,
   38.2955,       378,
   38.3201,       385,
   38.3446,       429,
   38.3691,       377,
   38.3937,       371,
   38.4182,       378,
   38.4427,       360,
   38.4673,       395,
   38.4918,       385,
   38.5163,       388,
   38.5409,       375,
   38.5654,       360,
   38.5899,       380,
   38.6145,       407,
    38.639,       399,
   38.6636,       376,
   38.6881,       404,
   38.7126,       373,
   38.7372,       392,
   38.7617,       414,
   38.7862,       362,
   38.8108,       411,
   38.8353,       369,
   38.8598,       383,
   38.8844,       376,
   38.9089,       378,
   38.9335,       436,
    38.958,       404,
   38.9825,       396,
   39.0071,       437,
   39.0316,       412,
   39.0561,       386,
   39.0807,       387,
   39.1052,       401,
   39.1297,       410,
   39.1543,       473,
   39.1788,       405,
   39.2034,       385,
   39.2279,       394,
   39.2524,       409,
    39.277,       358,
   39.3015,       436,
    39.326,       409,
   39.3506,       446,
   39.3751,       427,
   39.3996,       386,
   39.4242,       453,
   39.4487,       464,
   39.4732,       457,
   39.4978,       461,
   39.5223,       456,
   39.5469,       420,
   39.5714,       440,
   39.5959,       434,
   39.6205,       428,
    39.645,       440,
   39.6695,       418,
   39.6941,       439,
   39.7186,       460,
   39.7431,       421,
   39.7677,       423,
   39.7922,       401,
   39.8168,       412,
   39.8413,       428,
   39.8658,       430,
   39.8904,       473,
   39.9149,       410,
   39.9394,       407,
    39.964,       396,
   39.9885,       389,
