;RAW4.00
[RawHeader]
Date=03/16/2022
EstimatedTotalTime=633.746
FurtherDQLReading=0
HardwareIndicator=65519
MeasuredTotalTime=633.746
MeasurementFlag=1
NumberOfMeasuredRanges=1
NumberOfRanges=1
Time=12:55:41

[VarInfo]
Type=USER
Flags=0
Value=Lab Manager

[VarInfo]
Type=SAMPLEID
Flags=0
Value=

[VarInfo]
Type=COMMENT
Flags=0
Value=

[VarInfo]
Type=UTF
Flags=0
Value=

[VarInfo]
Type=CREATOR
Flags=0
Value=BrmlToV4Converter

[VarInfo]
Type=CREATOR_VERSION
Flags=0
Value=7.3.1.0

[HardwareConfiguration]
AbsorptionFactor=9999
ActivateAbsorber=0
Alpha1=0.7093
Alpha2=0.71359
AlphaAverage=0.71073
AlphaRatio=0.5
Analyzer=0
Anode=Mo
AntiScatteringSlit=18
BeamOpticsFlags=0
Beta=0.63229
BetaRelativeIntensity=0
DeactivateAbsorber=0
DetectorSlit=9999
DivergenceSlit=0.2
GoniometerControl=0
GoniometerDiameter=560
GoniometerModel=512
GoniometerStage=7
Monochromator=0
NearSampleSlit=9999
PrimarySollerSlit=2.5
SampleChanger=0
SecondSollerSlit=9999
SynchronousAxis=0
ThinFilmAttachment=9999
WaveUnit=A

[RangeHeader]
ActuallyUsedLambda=0.71073
AdditionalDetectorMask=257
DataRecordLength=4
DelayTime=0
DisplayPlaneNumber=0
EstimatedScanTime=634
ExtraParametersMask=0
GeneratorCurrent=40
GeneratorVoltage=50
Increment=0.0245361
Increment3=0
NumberOfCompletedData=1427
NumberOfCounts=1
NumberOfDetectors=0
NumberOfDrives=2
NumberOfEncoderDrives=0
NumberOfMeasuredData=1427
NumberOfVaryingParameters=0
RangeStartTime=0
RotationSpeed=60
ScanMode=1
ScanType=Locked Coupled
SimulatedMeasConditions=0
SlitChangerIn=0
SmootingWidth=0
Start=5
Steps=1427
SynchronousRotation=0
Time=76.8

[VarInfo]
Type=PSD_DISCRIM
Flags=0
Value=0.488;0.518

[PSD]
ActualTwoTheta=9999
FirstUsedChannel=0
FixedPSD=0
PSDOpening=2.94433
PSDType=5

[Drive]
DriveFlags=1
DriveName=2Theta
DriveNumber=2
DriveOffset=0
OffsetIndex=0
OscillationAmplitude=0
OscillationSpeed=0
StartPosition=5

[Drive]
DriveFlags=1
DriveName=Theta
DriveNumber=1
DriveOffset=0
OffsetIndex=0
OscillationAmplitude=0
OscillationSpeed=0
StartPosition=2.5

[Data]
     Angle,       PSD,
         5,       124,
   5.02454,        59,
   5.04907,       151,
   5.07361,       118,
   5.09814,       100,
   5.12268,       164,
   5.14722,        64,
   5.17175,       130,
   5.19629,       117,
   5.22083,        91,
   5.24536,       109,
    5.2699,        77,
   5.29443,       144,
   5.31897,       115,
   5.34351,        92,
   5.36804,       148,
   5.39258,        71,
   5.41711,       144,
   5.44165,       122,
   5.46619,        94,
   5.49072,       160,
   5.51526,        77,
   5.53979,       146,
   5.56433,       130,
   5.58887,        80,
    5.6134,       153,
   5.63794,        98,
   5.66248,       166,
   5.68701,       137,
   5.71155,        92,
   5.73608,       145,
   5.76062,        90,
   5.78516,       150,
   5.80969,       116,
   5.83423,        89,
   5.85876,       137,
    5.8833,        93,
   5.90784,       136,
   5.93237,       120,
   5.95691,       108,
   5.98144,       133,
   6.00598,        65,
   6.03052,       135,
   6.05505,       105,
   6.07959,        78,
   6.10413,       143,
   6.12866,        87,
    6.1532,       119,
   6.17773,       103,
   6.20227,        68,
   6.22681,       136,
   6.25134,        66,
   6.27588,       107,
   6.30041,       111,
   6.32495,        95,
   6.34949,       149,
   6.37402,        74,
   6.39856,       109,
    6.4231,       109,
   6.44763,        85,
   6.47217,       125,
    6.4967,        88,
   6.52124,       119,
   6.54578,       102,
   6.57031,        79,
   6.59485,       135,
   6.61938,        68,
   6.64392,       127,
   6.66846,       115,
   6.69299,        84,
   6.71753,       111,
   6.74206,        77,
    6.7666,       114,
   6.79114,       111,
   6.81567,        94,
   6.84021,       131,
   6.86475,        75,
   6.88928,       148,
   6.91382,       116,
   6.93835,        70,
   6.96289,       132,
   6.98743,        65,
   7.01196,       125,
    7.0365,       101,
   7.06103,        91,
   7.08557,       124,
   7.11011,        76,
   7.13464,       121,
   7.15918,        98,
   7.18371,        84,
   7.20825,       131,
   7.23279,        89,
   7.25732,       116,
   7.28186,       108,
    7.3064,        90,
   7.33093,       149,
   7.35547,        86,
      7.38,       124,
   7.40454,       105,
   7.42908,        71,
   7.45361,       122,
   7.47815,        78,
   7.50268,       126,
   7.52722,        96,
   7.55176,        81,
   7.57629,       116,
   7.60083,        77,
   7.62536,       120,
    7.6499,        99,
   7.67444,        85,
   7.69897,       131,
   7.72351,        75,
   7.74805,       115,
   7.77258,       116,
   7.79712,        91,
   7.82165,       131,
   7.84619,        95,
   7.87073,       134,
   7.89526,        97,
    7.9198,        83,
   7.94433,       131,
   7.96887,        95,
   7.99341,       141,
   8.01794,       113,
   8.04248,        98,
   8.06702,       120,
   8.09155,        90,
   8.11609,       121,
   8.14062,       121,
   8.16516,       114,
    8.1897,       157,
   8.21423,        77,
   8.23877,       132,
    8.2633,       151,
   8.28784,       111,
   8.31238,       148,
   8.33691,        98,
   8.36145,       133,
   8.38598,       147,
   8.41052,        85,
   8.43506,       164,
   8.45959,        63,
   8.48413,       161,
   8.50867,       135,
    8.5332,       101,
   8.55774,       145,
   8.58227,        96,
   8.60681,       125,
   8.63135,       135,
   8.65588,       100,
   8.68042,       159,
   8.70495,        98,
   8.72949,       146,
   8.75403,       144,
   8.77856,       112,
    8.8031,       142,
   8.82763,       111,
   8.85217,       154,
   8.87671,       144,
   8.90124,       107,
   8.92578,       197,
   8.95032,        94,
   8.97485,       145,
   8.99939,       153,
   9.02392,       104,
   9.04846,       199,
     9.073,        92,
   9.09753,       184,
   9.12207,       157,
    9.1466,       135,
   9.17114,       165,
   9.19568,       123,
   9.22021,       175,
   9.24475,       150,
   9.26929,       142,
   9.29382,       209,
   9.31836,       137,
   9.34289,       184,
   9.36743,       151,
   9.39197,       149,
    9.4165,       228,
   9.44104,       163,
   9.46557,       220,
   9.49011,       213,
   9.51465,       227,
   9.53918,       336,
   9.56372,       230,
   9.58825,       258,
   9.61279,       253,
   9.63733,       208,
   9.66186,       202,
    9.6864,       156,
   9.71094,       222,
   9.73547,       228,
   9.76001,       189,
   9.78454,       278,
   9.80908,       168,
   9.83362,       263,
   9.85815,       248,
   9.88269,       196,
   9.90722,       257,
   9.93176,       205,
    9.9563,       268,
   9.98083,       257,
   10.0054,       243,
   10.0299,       268,
   10.0544,       232,
    10.079,       253,
   10.1035,       280,
    10.128,       270,
   10.1526,       307,
   10.1771,       271,
   10.2017,       337,
   10.2262,       303,
   10.2507,       345,
   10.2753,       350,
   10.2998,       307,
   10.3243,       360,
   10.3489,       343,
   10.3734,       320,
   10.3979,       401,
   10.4225,       361,
    10.447,       485,
   10.4716,       437,
   10.4961,       444,
   10.5206,       468,
   10.5452,       407,
   10.5697,       439,
   10.5942,       393,
   10.6188,       433,
   10.6433,       452,
   10.6678,       413,
   10.6924,       439,
   10.7169,       435,
   10.7415,       442,
    10.766,       463,
   10.7905,       434,
   10.8151,       488,
   10.8396,       507,
   10.8641,       494,
   10.8887,       576,
   10.9132,       497,
   10.9377,       581,
   10.9623,       517,
   10.9868,       545,
   11.0113,       593,
   11.0359,       541,
   11.0604,       589,
    11.085,       612,
   11.1095,       617,
    11.134,       684,
   11.1586,       712,
   11.1831,       858,
   11.2076,       967,
   11.2322,      1109,
   11.2567,      1352,
   11.2812,      1481,
   11.3058,      1643,
   11.3303,      1616,
   11.3549,      1480,
   11.3794,      1363,
   11.4039,      1197,
   11.4285,      1048,
    11.453,       938,
   11.4775,       836,
   11.5021,       752,
   11.5266,       784,
   11.5511,       705,
   11.5757,       720,
   11.6002,       685,
   11.6248,       701,
   11.6493,       656,
   11.6738,       625,
   11.6984,       715,
   11.7229,       687,
   11.7474,       742,
    11.772,       663,
   11.7965,       744,
    11.821,       688,
   11.8456,       696,
   11.8701,       773,
   11.8946,       719,
   11.9192,       756,
   11.9437,       805,
   11.9683,       756,
   11.9928,       796,
   12.0173,       818,
   12.0419,       804,
   12.0664,       932,
   12.0909,       934,
   12.1155,      1035,
     12.14,      1167,
   12.1645,      1320,
   12.1891,      1587,
   12.2136,      1938,
   12.2382,      2140,
   12.2627,      2620,
   12.2872,      2646,
   12.3118,      2676,
   12.3363,      2421,
   12.3608,      2183,
   12.3854,      1943,
   12.4099,      1604,
   12.4344,      1359,
    12.459,      1190,
   12.4835,      1053,
   12.5081,       997,
   12.5326,       930,
   12.5571,       906,
   12.5817,       830,
   12.6062,       831,
   12.6307,       880,
   12.6553,       863,
   12.6798,       811,
   12.7043,       713,
   12.7289,       802,
   12.7534,       762,
    12.778,       739,
   12.8025,       846,
    12.827,       776,
   12.8516,       803,
   12.8761,       757,
   12.9006,       763,
   12.9252,       814,
   12.9497,       748,
   12.9742,       803,
   12.9988,       777,
   13.0233,       822,
   13.0478,       799,
   13.0724,       784,
   13.0969,       781,
   13.1215,       830,
    13.146,       772,
   13.1705,       850,
   13.1951,       898,
   13.2196,       960,
   13.2441,      1102,
   13.2687,      1295,
   13.2932,      1743,
   13.3177,      2310,
   13.3423,      2406,
   13.3668,      2193,
   13.3914,      1921,
   13.4159,      1792,
   13.4404,      1570,
    13.465,      1217,
   13.4895,       967,
    13.514,       882,
   13.5386,       897,
   13.5631,       805,
   13.5876,       757,
   13.6122,       783,
   13.6367,       840,
   13.6613,       789,
   13.6858,       754,
   13.7103,       744,
   13.7349,       749,
   13.7594,       754,
   13.7839,       747,
   13.8085,       768,
    13.833,       766,
   13.8575,       796,
   13.8821,       728,
   13.9066,       739,
   13.9311,       731,
   13.9557,       697,
   13.9802,       696,
   14.0048,       761,
   14.0293,       722,
   14.0538,       698,
   14.0784,       738,
   14.1029,       761,
   14.1274,       718,
    14.152,       728,
   14.1765,       729,
    14.201,       697,
   14.2256,       774,
   14.2501,       764,
   14.2747,       767,
   14.2992,       782,
   14.3237,       719,
   14.3483,       839,
   14.3728,       795,
   14.3973,       770,
   14.4219,       793,
   14.4464,       809,
   14.4709,       746,
   14.4955,       780,
     14.52,       777,
   14.5446,       759,
   14.5691,       787,
   14.5936,       837,
   14.6182,       859,
   14.6427,       924,
   14.6672,      1017,
   14.6918,      1073,
   14.7163,      1210,
   14.7408,      1440,
   14.7654,      1703,
   14.7899,      1975,
   14.8144,      2149,
    14.839,      2430,
   14.8635,      2484,
   14.8881,      2441,
   14.9126,      2223,
   14.9371,      2014,
   14.9617,      1756,
   14.9862,      1593,
   15.0107,      1373,
   15.0353,      1230,
   15.0598,      1101,
   15.0843,       956,
   15.1089,       907,
   15.1334,       874,
    15.158,       796,
   15.1825,       824,
    15.207,       741,
   15.2316,       713,
   15.2561,       712,
   15.2806,       740,
   15.3052,       681,
   15.3297,       603,
   15.3542,       668,
   15.3788,       705,
   15.4033,       652,
   15.4279,       623,
   15.4524,       621,
   15.4769,       671,
   15.5015,       636,
    15.526,       607,
   15.5505,       596,
   15.5751,       592,
   15.5996,       620,
   15.6241,       604,
   15.6487,       591,
   15.6732,       570,
   15.6977,       582,
   15.7223,       619,
   15.7468,       571,
   15.7714,       590,
   15.7959,       617,
   15.8204,       623,
    15.845,       546,
   15.8695,       581,
    15.894,       569,
   15.9186,       601,
   15.9431,       602,
   15.9676,       576,
   15.9922,       592,
   16.0167,       567,
   16.0413,       545,
   16.0658,       563,
   16.0903,       533,
   16.1149,       566,
   16.1394,       552,
   16.1639,       574,
   16.1885,       611,
    16.213,       707,
   16.2375,       714,
   16.2621,       722,
   16.2866,       753,
   16.3112,       692,
   16.3357,       696,
   16.3602,       679,
   16.3848,       686,
   16.4093,       646,
   16.4338,       594,
   16.4584,       521,
   16.4829,       564,
   16.5074,       521,
    16.532,       518,
   16.5565,       536,
    16.581,       519,
   16.6056,       495,
   16.6301,       540,
   16.6547,       506,
   16.6792,       493,
   16.7037,       517,
   16.7283,       511,
   16.7528,       496,
   16.7773,       517,
   16.8019,       516,
   16.8264,       528,
   16.8509,       483,
   16.8755,       494,
      16.9,       534,
   16.9246,       539,
   16.9491,       504,
   16.9736,       526,
   16.9982,       507,
   17.0227,       515,
   17.0472,       524,
   17.0718,       573,
   17.0963,       499,
   17.1208,       489,
   17.1454,       535,
   17.1699,       548,
   17.1945,       562,
    17.219,       512,
   17.2435,       523,
   17.2681,       553,
   17.2926,       547,
   17.3171,       560,
   17.3417,       580,
   17.3662,       615,
   17.3907,       576,
   17.4153,       627,
   17.4398,       633,
   17.4643,       668,
   17.4889,       659,
   17.5134,       671,
    17.538,       744,
   17.5625,       646,
    17.587,       666,
   17.6116,       719,
   17.6361,       710,
   17.6606,       680,
   17.6852,       736,
   17.7097,       719,
   17.7342,       811,
   17.7588,       873,
   17.7833,       902,
   17.8079,       962,
   17.8324,       880,
   17.8569,       814,
   17.8815,       821,
    17.906,       778,
   17.9305,       683,
   17.9551,       665,
   17.9796,       633,
   18.0041,       620,
   18.0287,       634,
   18.0532,       535,
   18.0778,       615,
   18.1023,       607,
   18.1268,       604,
   18.1514,       585,
   18.1759,       587,
   18.2004,       616,
    18.225,       641,
   18.2495,       612,
    18.274,       596,
   18.2986,       600,
   18.3231,       585,
   18.3476,       586,
   18.3722,       620,
   18.3967,       622,
   18.4213,       579,
   18.4458,       596,
   18.4703,       580,
   18.4949,       592,
   18.5194,       552,
   18.5439,       567,
   18.5685,       561,
    18.593,       531,
   18.6175,       566,
   18.6421,       546,
   18.6666,       590,
   18.6912,       575,
   18.7157,       579,
   18.7402,       606,
   18.7648,       598,
   18.7893,       566,
   18.8138,       582,
   18.8384,       641,
   18.8629,       586,
   18.8874,       616,
    18.912,       577,
   18.9365,       578,
   18.9611,       592,
   18.9856,       569,
   19.0101,       579,
   19.0347,       617,
   19.0592,       646,
   19.0837,       617,
   19.1083,       646,
   19.1328,       607,
   19.1573,       616,
   19.1819,       641,
   19.2064,       726,
    19.231,       804,
   19.2555,       763,
     19.28,       719,
   19.3046,       706,
   19.3291,       786,
   19.3536,       739,
   19.3782,       832,
   19.4027,       881,
   19.4272,       867,
   19.4518,       820,
   19.4763,       801,
   19.5008,       793,
   19.5254,       847,
   19.5499,       868,
   19.5745,       926,
    19.599,      1028,
   19.6235,      1128,
   19.6481,      1278,
   19.6726,      1478,
   19.6971,      1613,
   19.7217,      1627,
   19.7462,      1572,
   19.7707,      1517,
   19.7953,      1448,
   19.8198,      1343,
   19.8444,      1245,
   19.8689,      1085,
   19.8934,       980,
    19.918,       960,
   19.9425,       806,
    19.967,       702,
   19.9916,       651,
   20.0161,       655,
   20.0406,       622,
   20.0652,       596,
   20.0897,       593,
   20.1143,       537,
   20.1388,       563,
   20.1633,       524,
   20.1879,       603,
   20.2124,       536,
   20.2369,       561,
   20.2615,       580,
    20.286,       555,
   20.3105,       562,
   20.3351,       586,
   20.3596,       567,
   20.3841,       559,
   20.4087,       552,
   20.4332,       531,
   20.4578,       550,
   20.4823,       555,
   20.5068,       551,
   20.5314,       584,
   20.5559,       560,
   20.5804,       576,
    20.605,       523,
   20.6295,       561,
    20.654,       525,
   20.6786,       494,
   20.7031,       526,
   20.7277,       568,
   20.7522,       554,
   20.7767,       497,
   20.8013,       520,
   20.8258,       572,
   20.8503,       515,
   20.8749,       532,
   20.8994,       554,
   20.9239,       558,
   20.9485,       527,
    20.973,       566,
   20.9976,       537,
   21.0221,       543,
   21.0466,       573,
   21.0712,       597,
   21.0957,       648,
   21.1202,       656,
   21.1448,       679,
   21.1693,       649,
   21.1938,       671,
   21.2184,       694,
   21.2429,       769,
   21.2674,       796,
    21.292,       867,
   21.3165,       817,
   21.3411,       760,
   21.3656,       698,
   21.3901,       728,
   21.4147,       717,
   21.4392,       677,
   21.4637,       683,
   21.4883,       645,
   21.5128,       616,
   21.5373,       614,
   21.5619,       616,
   21.5864,       603,
    21.611,       592,
   21.6355,       670,
     21.66,       742,
   21.6846,       812,
   21.7091,       945,
   21.7336,       862,
   21.7582,       866,
   21.7827,       810,
   21.8072,       797,
   21.8318,       832,
   21.8563,       857,
   21.8809,       939,
   21.9054,       995,
   21.9299,       929,
   21.9545,       942,
    21.979,       938,
   22.0035,       876,
   22.0281,       858,
   22.0526,       899,
   22.0771,       914,
   22.1017,       811,
   22.1262,       815,
   22.1507,       863,
   22.1753,       785,
   22.1998,       808,
   22.2244,       796,
   22.2489,       850,
   22.2734,       903,
    22.298,      1070,
   22.3225,      1147,
    22.347,      1195,
   22.3716,      1357,
   22.3961,      1448,
   22.4206,      1382,
   22.4452,      1346,
   22.4697,      1348,
   22.4943,      1258,
   22.5188,      1111,
   22.5433,      1064,
   22.5679,      1017,
   22.5924,       904,
   22.6169,       809,
   22.6415,       756,
    22.666,       665,
   22.6905,       620,
   22.7151,       688,
   22.7396,       671,
   22.7642,       633,
   22.7887,       655,
   22.8132,       635,
   22.8378,       588,
   22.8623,       601,
   22.8868,       634,
   22.9114,       624,
   22.9359,       579,
   22.9604,       544,
    22.985,       555,
   23.0095,       570,
    23.034,       564,
   23.0586,       553,
   23.0831,       501,
   23.1077,       550,
   23.1322,       563,
   23.1567,       568,
   23.1813,       534,
   23.2058,       506,
   23.2303,       529,
   23.2549,       566,
   23.2794,       562,
   23.3039,       573,
   23.3285,       506,
    23.353,       546,
   23.3776,       550,
   23.4021,       565,
   23.4266,       510,
   23.4512,       552,
   23.4757,       537,
   23.5002,       564,
   23.5248,       554,
   23.5493,       546,
   23.5738,       526,
   23.5984,       565,
   23.6229,       508,
   23.6475,       562,
    23.672,       502,
   23.6965,       541,
   23.7211,       532,
   23.7456,       573,
   23.7701,       566,
   23.7947,       549,
   23.8192,       554,
   23.8437,       541,
   23.8683,       524,
   23.8928,       571,
   23.9173,       581,
   23.9419,       541,
   23.9664,       596,
    23.991,       563,
   24.0155,       505,
     24.04,       531,
   24.0646,       545,
   24.0891,       547,
   24.1136,       553,
   24.1382,       537,
   24.1627,       561,
   24.1872,       544,
   24.2118,       552,
   24.2363,       536,
   24.2609,       551,
   24.2854,       564,
   24.3099,       564,
   24.3345,       560,
    24.359,       601,
   24.3835,       576,
   24.4081,       594,
   24.4326,       617,
   24.4571,       581,
   24.4817,       585,
   24.5062,       612,
   24.5308,       564,
   24.5553,       598,
   24.5798,       602,
   24.6044,       612,
   24.6289,       626,
   24.6534,       689,
    24.678,       720,
   24.7025,       779,
    24.727,       797,
   24.7516,       851,
   24.7761,       853,
   24.8006,       855,
   24.8252,       869,
   24.8497,       907,
   24.8743,       877,
   24.8988,       817,
   24.9233,       839,
   24.9479,       822,
   24.9724,       810,
   24.9969,       763,
   25.0215,       716,
    25.046,       706,
   25.0705,       712,
   25.0951,       745,
   25.1196,       664,
   25.1442,       677,
   25.1687,       683,
   25.1932,       633,
   25.2178,       592,
   25.2423,       648,
   25.2668,       601,
   25.2914,       561,
   25.3159,       602,
   25.3404,       626,
    25.365,       613,
   25.3895,       612,
   25.4141,       635,
   25.4386,       656,
   25.4631,       732,
   25.4877,       688,
   25.5122,       676,
   25.5367,       628,
   25.5613,       615,
   25.5858,       633,
   25.6103,       634,
   25.6349,       676,
   25.6594,       645,
   25.6839,       612,
   25.7085,       613,
    25.733,       574,
   25.7576,       601,
   25.7821,       581,
   25.8066,       544,
   25.8312,       587,
   25.8557,       588,
   25.8802,       548,
   25.9048,       554,
   25.9293,       580,
   25.9538,       561,
   25.9784,       563,
   26.0029,       559,
   26.0275,       583,
    26.052,       600,
   26.0765,       584,
   26.1011,       587,
   26.1256,       608,
   26.1501,       553,
   26.1747,       545,
   26.1992,       571,
   26.2237,       550,
   26.2483,       552,
   26.2728,       634,
   26.2974,       607,
   26.3219,       588,
   26.3464,       552,
    26.371,       623,
   26.3955,       613,
     26.42,       611,
   26.4446,       586,
   26.4691,       667,
   26.4936,       654,
   26.5182,       615,
   26.5427,       643,
   26.5673,       653,
   26.5918,       643,
   26.6163,       652,
   26.6409,       657,
   26.6654,       621,
   26.6899,       602,
   26.7145,       654,
    26.739,       626,
   26.7635,       641,
   26.7881,       700,
   26.8126,       680,
   26.8371,       682,
   26.8617,       719,
   26.8862,       627,
   26.9108,       700,
   26.9353,       677,
   26.9598,       711,
   26.9844,       723,
   27.0089,       676,
   27.0334,       641,
    27.058,       634,
   27.0825,       641,
    27.107,       635,
   27.1316,       627,
   27.1561,       629,
   27.1807,       590,
   27.2052,       620,
   27.2297,       606,
   27.2543,       626,
   27.2788,       604,
   27.3033,       649,
   27.3279,       580,
   27.3524,       582,
   27.3769,       585,
   27.4015,       583,
    27.426,       655,
   27.4506,       583,
   27.4751,       618,
   27.4996,       553,
   27.5242,       620,
   27.5487,       554,
   27.5732,       605,
   27.5978,       595,
   27.6223,       630,
   27.6468,       689,
   27.6714,       580,
   27.6959,       657,
   27.7204,       653,
    27.745,       671,
   27.7695,       689,
   27.7941,       677,
   27.8186,       636,
   27.8431,       688,
   27.8677,       639,
   27.8922,       616,
   27.9167,       634,
   27.9413,       603,
   27.9658,       638,
   27.9903,       620,
   28.0149,       602,
   28.0394,       539,
    28.064,       543,
   28.0885,       595,
    28.113,       593,
   28.1376,       549,
   28.1621,       615,
   28.1866,       577,
   28.2112,       618,
   28.2357,       540,
   28.2602,       611,
   28.2848,       548,
   28.3093,       616,
   28.3339,       613,
   28.3584,       588,
   28.3829,       601,
   28.4075,       701,
    28.432,       707,
   28.4565,       633,
   28.4811,       616,
   28.5056,       612,
   28.5301,       628,
   28.5547,       625,
   28.5792,       642,
   28.6037,       652,
   28.6283,       644,
   28.6528,       652,
   28.6774,       619,
   28.7019,       676,
   28.7264,       622,
    28.751,       594,
   28.7755,       581,
      28.8,       637,
   28.8246,       621,
   28.8491,       584,
   28.8736,       633,
   28.8982,       577,
   28.9227,       580,
   28.9473,       578,
   28.9718,       589,
   28.9963,       623,
   29.0209,       606,
   29.0454,       606,
   29.0699,       613,
   29.0945,       588,
    29.119,       643,
   29.1435,       598,
   29.1681,       563,
   29.1926,       571,
   29.2172,       610,
   29.2417,       590,
   29.2662,       582,
   29.2908,       599,
   29.3153,       578,
   29.3398,       557,
   29.3644,       581,
   29.3889,       588,
   29.4134,       613,
    29.438,       565,
   29.4625,       570,
    29.487,       543,
   29.5116,       560,
   29.5361,       576,
   29.5607,       595,
   29.5852,       596,
   29.6097,       570,
   29.6343,       538,
   29.6588,       600,
   29.6833,       576,
   29.7079,       553,
   29.7324,       565,
   29.7569,       578,
   29.7815,       586,
    29.806,       617,
   29.8306,       581,
   29.8551,       579,
   29.8796,       609,
   29.9042,       584,
   29.9287,       657,
   29.9532,       669,
   29.9778,       620,
   30.0023,       655,
   30.0268,       611,
   30.0514,       671,
   30.0759,       622,
   30.1005,       664,
    30.125,       656,
   30.1495,       630,
   30.1741,       621,
   30.1986,       592,
   30.2231,       695,
   30.2477,       622,
   30.2722,       616,
   30.2967,       582,
   30.3213,       608,
   30.3458,       595,
   30.3703,       600,
   30.3949,       613,
   30.4194,       627,
    30.444,       629,
   30.4685,       593,
    30.493,       619,
   30.5176,       589,
   30.5421,       557,
   30.5666,       597,
   30.5912,       615,
   30.6157,       628,
   30.6402,       587,
   30.6648,       612,
   30.6893,       573,
   30.7139,       598,
   30.7384,       591,
   30.7629,       592,
   30.7875,       599,
    30.812,       566,
   30.8365,       549,
   30.8611,       561,
   30.8856,       555,
   30.9101,       589,
   30.9347,       556,
   30.9592,       597,
   30.9838,       526,
   31.0083,       531,
   31.0328,       636,
   31.0574,       555,
   31.0819,       576,
   31.1064,       559,
    31.131,       567,
   31.1555,       597,
     31.18,       575,
   31.2046,       570,
   31.2291,       635,
   31.2536,       646,
   31.2782,       661,
   31.3027,       677,
   31.3273,       632,
   31.3518,       660,
   31.3763,       662,
   31.4009,       694,
   31.4254,       635,
   31.4499,       642,
   31.4745,       636,
    31.499,       632,
   31.5235,       600,
   31.5481,       569,
   31.5726,       630,
   31.5972,       596,
   31.6217,       641,
   31.6462,       636,
   31.6708,       702,
   31.6953,       612,
   31.7198,       619,
   31.7444,       621,
   31.7689,       664,
   31.7934,       591,
    31.818,       665,
   31.8425,       633,
   31.8671,       695,
   31.8916,       652,
   31.9161,       720,
   31.9407,       672,
   31.9652,       707,
   31.9897,       681,
   32.0143,       726,
   32.0388,       647,
   32.0633,       670,
   32.0879,       671,
   32.1124,       637,
   32.1369,       614,
   32.1615,       645,
    32.186,       610,
   32.2106,       593,
   32.2351,       651,
   32.2596,       529,
   32.2842,       614,
   32.3087,       553,
   32.3332,       555,
   32.3578,       549,
   32.3823,       535,
   32.4068,       545,
   32.4314,       515,
   32.4559,       545,
   32.4805,       544,
    32.505,       539,
   32.5295,       562,
   32.5541,       566,
   32.5786,       541,
   32.6031,       487,
   32.6277,       572,
   32.6522,       504,
   32.6767,       562,
   32.7013,       512,
   32.7258,       525,
   32.7504,       500,
   32.7749,       520,
   32.7994,       529,
    32.824,       541,
   32.8485,       522,
    32.873,       538,
   32.8976,       530,
   32.9221,       534,
   32.9466,       571,
   32.9712,       587,
   32.9957,       524,
   33.0203,       541,
   33.0448,       533,
   33.0693,       546,
   33.0939,       587,
   33.1184,       545,
   33.1429,       554,
   33.1675,       565,
    33.192,       568,
   33.2165,       525,
   33.2411,       542,
   33.2656,       577,
   33.2901,       544,
   33.3147,       515,
   33.3392,       571,
   33.3638,       551,
   33.3883,       519,
   33.4128,       525,
   33.4374,       582,
   33.4619,       531,
   33.4864,       498,
    33.511,       522,
   33.5355,       513,
     33.56,       530,
   33.5846,       530,
   33.6091,       508,
   33.6337,       528,
   33.6582,       500,
   33.6827,       566,
   33.7073,       516,
   33.7318,       523,
   33.7563,       495,
   33.7809,       510,
   33.8054,       448,
   33.8299,       504,
   33.8545,       506,
    33.879,       546,
   33.9036,       512,
   33.9281,       517,
   33.9526,       516,
   33.9772,       478,
   34.0017,       513,
   34.0262,       510,
   34.0508,       526,
   34.0753,       526,
   34.0998,       535,
   34.1244,       509,
   34.1489,       538,
   34.1734,       495,
    34.198,       500,
   34.2225,       537,
   34.2471,       502,
   34.2716,       548,
   34.2961,       480,
   34.3207,       492,
   34.3452,       518,
   34.3697,       467,
   34.3943,       488,
   34.4188,       507,
   34.4433,       515,
   34.4679,       441,
   34.4924,       531,
    34.517,       530,
   34.5415,       513,
    34.566,       503,
   34.5906,       515,
   34.6151,       546,
   34.6396,       532,
   34.6642,       521,
   34.6887,       515,
   34.7132,       548,
   34.7378,       529,
   34.7623,       580,
   34.7869,       516,
   34.8114,       550,
   34.8359,       533,
   34.8605,       566,
    34.885,       582,
   34.9095,       535,
   34.9341,       506,
   34.9586,       550,
   34.9831,       516,
   35.0077,       497,
   35.0322,       527,
   35.0567,       478,
   35.0813,       506,
   35.1058,       513,
   35.1304,       533,
   35.1549,       529,
   35.1794,       529,
    35.204,       510,
   35.2285,       542,
    35.253,       547,
   35.2776,       490,
   35.3021,       551,
   35.3266,       478,
   35.3512,       492,
   35.3757,       511,
   35.4003,       495,
   35.4248,       526,
   35.4493,       535,
   35.4739,       521,
   35.4984,       494,
   35.5229,       505,
   35.5475,       514,
    35.572,       513,
   35.5965,       560,
   35.6211,       531,
   35.6456,       526,
   35.6702,       521,
   35.6947,       566,
   35.7192,       576,
   35.7438,       571,
   35.7683,       601,
   35.7928,       543,
   35.8174,       529,
   35.8419,       515,
   35.8664,       551,
    35.891,       565,
   35.9155,       526,
     35.94,       588,
   35.9646,       564,
   35.9891,       583,
   36.0137,       519,
   36.0382,       558,
   36.0627,       542,
   36.0873,       553,
   36.1118,       553,
   36.1363,       556,
   36.1609,       553,
   36.1854,       534,
   36.2099,       540,
   36.2345,       535,
    36.259,       496,
   36.2836,       551,
   36.3081,       517,
   36.3326,       542,
   36.3572,       492,
   36.3817,       502,
   36.4062,       482,
   36.4308,       497,
   36.4553,       504,
   36.4798,       501,
   36.5044,       531,
   36.5289,       474,
   36.5535,       486,
    36.578,       454,
   36.6025,       471,
   36.6271,       452,
   36.6516,       422,
   36.6761,       448,
   36.7007,       445,
   36.7252,       451,
   36.7497,       452,
   36.7743,       485,
   36.7988,       457,
   36.8233,       468,
   36.8479,       433,
   36.8724,       489,
    36.897,       444,
   36.9215,       454,
    36.946,       445,
   36.9706,       451,
   36.9951,       466,
   37.0196,       465,
   37.0442,       434,
   37.0687,       471,
   37.0932,       470,
   37.1178,       478,
   37.1423,       445,
   37.1669,       446,
   37.1914,       482,
   37.2159,       446,
   37.2405,       443,
    37.265,       446,
   37.2895,       460,
   37.3141,       453,
   37.3386,       493,
   37.3631,       496,
   37.3877,       466,
   37.4122,       485,
   37.4368,       497,
   37.4613,       488,
   37.4858,       470,
   37.5104,       450,
   37.5349,       448,
   37.5594,       436,
    37.584,       464,
   37.6085,       418,
    37.633,       436,
   37.6576,       433,
   37.6821,       421,
   37.7066,       431,
   37.7312,       432,
   37.7557,       429,
   37.7803,       405,
   37.8048,       416,
   37.8293,       427,
   37.8539,       383,
   37.8784,       413,
   37.9029,       423,
   37.9275,       417,
    37.952,       461,
   37.9765,       425,
   38.0011,       393,
   38.0256,       452,
   38.0502,       434,
   38.0747,       411,
   38.0992,       422,
   38.1238,       423,
   38.1483,       406,
   38.1728,       420,
   38.1974,       447,
   38.2219,       410,
   38.2464,       434,
    38.271,       442,
   38.2955,       430,
   38.3201,       424,
   38.3446,       364,
   38.3691,       389,
   38.3937,       444,
   38.4182,       387,
   38.4427,       421,
   38.4673,       405,
   38.4918,       395,
   38.5163,       407,
   38.5409,       398,
   38.5654,       397,
   38.5899,       419,
   38.6145,       420,
    38.639,       400,
   38.6636,       414,
   38.6881,       403,
   38.7126,       420,
   38.7372,       385,
   38.7617,       415,
   38.7862,       423,
   38.8108,       389,
   38.8353,       426,
   38.8598,       446,
   38.8844,       419,
   38.9089,       422,
   38.9335,       438,
    38.958,       415,
   38.9825,       427,
   39.0071,       430,
   39.0316,       422,
   39.0561,       424,
   39.0807,       462,
   39.1052,       419,
   39.1297,       473,
   39.1543,       419,
   39.1788,       400,
   39.2034,       395,
   39.2279,       420,
   39.2524,       430,
    39.277,       433,
   39.3015,       486,
    39.326,       457,
   39.3506,       448,
   39.3751,       441,
   39.3996,       461,
   39.4242,       436,
   39.4487,       452,
   39.4732,       474,
   39.4978,       495,
   39.5223,       468,
   39.5469,       463,
   39.5714,       457,
   39.5959,       459,
   39.6205,       461,
    39.645,       495,
   39.6695,       452,
   39.6941,       434,
   39.7186,       460,
   39.7431,       458,
   39.7677,       449,
   39.7922,       467,
   39.8168,       475,
   39.8413,       485,
   39.8658,       462,
   39.8904,       418,
   39.9149,       441,
   39.9394,       481,
    39.964,       429,
   39.9885,       423,
