;RAW4.00
[RawHeader]
Date=03/16/2022
EstimatedTotalTime=633.481
FurtherDQLReading=0
HardwareIndicator=65519
MeasuredTotalTime=633.481
MeasurementFlag=1
NumberOfMeasuredRanges=1
NumberOfRanges=1
Time=13:08:30

[VarInfo]
Type=USER
Flags=0
Value=Lab Manager

[VarInfo]
Type=SAMPLEID
Flags=0
Value=

[VarInfo]
Type=COMMENT
Flags=0
Value=

[VarInfo]
Type=UTF
Flags=0
Value=

[VarInfo]
Type=CREATOR
Flags=0
Value=BrmlToV4Converter

[VarInfo]
Type=CREATOR_VERSION
Flags=0
Value=7.3.1.0

[HardwareConfiguration]
AbsorptionFactor=9999
ActivateAbsorber=0
Alpha1=0.7093
Alpha2=0.71359
AlphaAverage=0.71073
AlphaRatio=0.5
Analyzer=0
Anode=Mo
AntiScatteringSlit=18
BeamOpticsFlags=0
Beta=0.63229
BetaRelativeIntensity=0
DeactivateAbsorber=0
DetectorSlit=9999
DivergenceSlit=0.2
GoniometerControl=0
GoniometerDiameter=560
GoniometerModel=512
GoniometerStage=7
Monochromator=0
NearSampleSlit=9999
PrimarySollerSlit=2.5
SampleChanger=0
SecondSollerSlit=9999
SynchronousAxis=0
ThinFilmAttachment=9999
WaveUnit=A

[RangeHeader]
ActuallyUsedLambda=0.71073
AdditionalDetectorMask=257
DataRecordLength=4
DelayTime=0
DisplayPlaneNumber=0
EstimatedScanTime=633
ExtraParametersMask=0
GeneratorCurrent=40
GeneratorVoltage=50
Increment=0.0245361
Increment3=0
NumberOfCompletedData=1427
NumberOfCounts=1
NumberOfDetectors=0
NumberOfDrives=2
NumberOfEncoderDrives=0
NumberOfMeasuredData=1427
NumberOfVaryingParameters=0
RangeStartTime=0
RotationSpeed=60
ScanMode=1
ScanType=Locked Coupled
SimulatedMeasConditions=0
SlitChangerIn=0
SmootingWidth=0
Start=5
Steps=1427
SynchronousRotation=0
Time=76.8

[VarInfo]
Type=PSD_DISCRIM
Flags=0
Value=0.488;0.518

[PSD]
ActualTwoTheta=9999
FirstUsedChannel=0
FixedPSD=0
PSDOpening=2.94433
PSDType=5

[Drive]
DriveFlags=1
DriveName=2Theta
DriveNumber=2
DriveOffset=0
OffsetIndex=0
OscillationAmplitude=0
OscillationSpeed=0
StartPosition=5

[Drive]
DriveFlags=1
DriveName=Theta
DriveNumber=1
DriveOffset=0
OffsetIndex=0
OscillationAmplitude=0
OscillationSpeed=0
StartPosition=2.5

[Data]
     Angle,       PSD,
         5,       170,
   5.02454,        86,
   5.04907,       195,
   5.07361,       157,
   5.09814,       134,
   5.12268,       171,
   5.14722,        86,
   5.17175,       182,
   5.19629,       157,
   5.22083,       150,
   5.24536,       195,
    5.2699,       100,
   5.29443,       190,
   5.31897,       153,
   5.34351,       132,
   5.36804,       223,
   5.39258,       116,
   5.41711,       182,
   5.44165,       153,
   5.46619,       143,
   5.49072,       204,
   5.51526,       126,
   5.53979,       174,
   5.56433,       160,
   5.58887,       141,
    5.6134,       194,
   5.63794,       112,
   5.66248,       192,
   5.68701,       145,
   5.71155,       127,
   5.73608,       197,
   5.76062,       107,
   5.78516,       188,
   5.80969,       154,
   5.83423,       120,
   5.85876,       173,
    5.8833,        94,
   5.90784,       190,
   5.93237,       134,
   5.95691,       131,
   5.98144,       190,
   6.00598,       106,
   6.03052,       200,
   6.05505,       144,
   6.07959,       134,
   6.10413,       149,
   6.12866,        86,
    6.1532,       157,
   6.17773,       131,
   6.20227,       115,
   6.22681,       151,
   6.25134,        73,
   6.27588,       183,
   6.30041,       139,
   6.32495,       113,
   6.34949,       162,
   6.37402,       101,
   6.39856,       175,
    6.4231,       129,
   6.44763,       120,
   6.47217,       145,
    6.4967,        99,
   6.52124,       160,
   6.54578,       137,
   6.57031,        97,
   6.59485,       161,
   6.61938,       100,
   6.64392,       173,
   6.66846,       126,
   6.69299,       123,
   6.71753,       169,
   6.74206,        82,
    6.7666,       147,
   6.79114,       116,
   6.81567,        92,
   6.84021,       154,
   6.86475,        83,
   6.88928,       142,
   6.91382,       109,
   6.93835,        97,
   6.96289,       176,
   6.98743,        90,
   7.01196,       169,
    7.0365,       106,
   7.06103,       127,
   7.08557,       166,
   7.11011,       120,
   7.13464,       155,
   7.15918,       129,
   7.18371,       126,
   7.20825,       161,
   7.23279,        93,
   7.25732,       155,
   7.28186,       148,
    7.3064,       122,
   7.33093,       158,
   7.35547,        73,
      7.38,       159,
   7.40454,       123,
   7.42908,       136,
   7.45361,       150,
   7.47815,        78,
   7.50268,       177,
   7.52722,       124,
   7.55176,       147,
   7.57629,       158,
   7.60083,       126,
   7.62536,       160,
    7.6499,       147,
   7.67444,       139,
   7.69897,       169,
   7.72351,        98,
   7.74805,       167,
   7.77258,       124,
   7.79712,       129,
   7.82165,       182,
   7.84619,       107,
   7.87073,       170,
   7.89526,       140,
    7.9198,       120,
   7.94433,       188,
   7.96887,       113,
   7.99341,       189,
   8.01794,       144,
   8.04248,       128,
   8.06702,       157,
   8.09155,       109,
   8.11609,       174,
   8.14062,       148,
   8.16516,       155,
    8.1897,       183,
   8.21423,       121,
   8.23877,       202,
    8.2633,       150,
   8.28784,       156,
   8.31238,       188,
   8.33691,       124,
   8.36145,       201,
   8.38598,       164,
   8.41052,       141,
   8.43506,       189,
   8.45959,       114,
   8.48413,       187,
   8.50867,       170,
    8.5332,       156,
   8.55774,       205,
   8.58227,       128,
   8.60681,       212,
   8.63135,       165,
   8.65588,       148,
   8.68042,       215,
   8.70495,       135,
   8.72949,       217,
   8.75403,       188,
   8.77856,       174,
    8.8031,       201,
   8.82763,       167,
   8.85217,       219,
   8.87671,       195,
   8.90124,       168,
   8.92578,       221,
   8.95032,       134,
   8.97485,       228,
   8.99939,       183,
   9.02392,       169,
   9.04846,       245,
     9.073,       148,
   9.09753,       210,
   9.12207,       201,
    9.1466,       181,
   9.17114,       278,
   9.19568,       159,
   9.22021,       237,
   9.24475,       215,
   9.26929,       168,
   9.29382,       276,
   9.31836,       181,
   9.34289,       240,
   9.36743,       232,
   9.39197,       210,
    9.4165,       296,
   9.44104,       183,
   9.46557,       267,
   9.49011,       290,
   9.51465,       306,
   9.53918,       336,
   9.56372,       243,
   9.58825,       316,
   9.61279,       287,
   9.63733,       286,
   9.66186,       310,
    9.6864,       242,
   9.71094,       307,
   9.73547,       287,
   9.76001,       269,
   9.78454,       350,
   9.80908,       242,
   9.83362,       343,
   9.85815,       298,
   9.88269,       290,
   9.90722,       352,
   9.93176,       296,
    9.9563,       374,
   9.98083,       362,
   10.0054,       342,
   10.0299,       405,
   10.0544,       329,
    10.079,       432,
   10.1035,       367,
    10.128,       390,
   10.1526,       435,
   10.1771,       365,
   10.2017,       410,
   10.2262,       416,
   10.2507,       385,
   10.2753,       436,
   10.2998,       409,
   10.3243,       487,
   10.3489,       438,
   10.3734,       451,
   10.3979,       507,
   10.4225,       458,
    10.447,       548,
   10.4716,       576,
   10.4961,       548,
   10.5206,       601,
   10.5452,       537,
   10.5697,       605,
   10.5942,       526,
   10.6188,       526,
   10.6433,       570,
   10.6678,       558,
   10.6924,       614,
   10.7169,       591,
   10.7415,       561,
    10.766,       628,
   10.7905,       541,
   10.8151,       605,
   10.8396,       650,
   10.8641,       606,
   10.8887,       668,
   10.9132,       644,
   10.9377,       657,
   10.9623,       640,
   10.9868,       673,
   11.0113,       736,
   11.0359,       694,
   11.0604,       736,
    11.085,       696,
   11.1095,       722,
    11.134,       804,
   11.1586,       841,
   11.1831,       937,
   11.2076,       977,
   11.2322,      1119,
   11.2567,      1334,
   11.2812,      1387,
   11.3058,      1542,
   11.3303,      1479,
   11.3549,      1437,
   11.3794,      1370,
   11.4039,      1213,
   11.4285,      1125,
    11.453,       994,
   11.4775,       912,
   11.5021,       908,
   11.5266,       849,
   11.5511,       839,
   11.5757,       852,
   11.6002,       865,
   11.6248,       894,
   11.6493,       882,
   11.6738,       873,
   11.6984,       895,
   11.7229,       830,
   11.7474,       894,
    11.772,       863,
   11.7965,       852,
    11.821,       784,
   11.8456,       851,
   11.8701,       905,
   11.8946,       895,
   11.9192,       914,
   11.9437,       962,
   11.9683,       888,
   11.9928,       938,
   12.0173,       935,
   12.0419,       950,
   12.0664,       981,
   12.0909,       993,
   12.1155,      1074,
     12.14,      1158,
   12.1645,      1355,
   12.1891,      1443,
   12.2136,      1754,
   12.2382,      1919,
   12.2627,      2191,
   12.2872,      2338,
   12.3118,      2279,
   12.3363,      2136,
   12.3608,      2096,
   12.3854,      1761,
   12.4099,      1624,
   12.4344,      1440,
    12.459,      1281,
   12.4835,      1207,
   12.5081,      1084,
   12.5326,      1001,
   12.5571,      1024,
   12.5817,       992,
   12.6062,      1019,
   12.6307,       941,
   12.6553,       948,
   12.6798,       961,
   12.7043,       921,
   12.7289,       999,
   12.7534,       888,
    12.778,       914,
   12.8025,       928,
    12.827,       912,
   12.8516,       924,
   12.8761,       925,
   12.9006,       928,
   12.9252,       930,
   12.9497,       947,
   12.9742,       933,
   12.9988,       907,
   13.0233,       916,
   13.0478,       925,
   13.0724,       904,
   13.0969,       944,
   13.1215,       967,
    13.146,       984,
   13.1705,      1019,
   13.1951,      1039,
   13.2196,      1057,
   13.2441,      1125,
   13.2687,      1277,
   13.2932,      1590,
   13.3177,      1998,
   13.3423,      2251,
   13.3668,      2120,
   13.3914,      1807,
   13.4159,      1671,
   13.4404,      1489,
    13.465,      1224,
   13.4895,      1043,
    13.514,       938,
   13.5386,       989,
   13.5631,       959,
   13.5876,       949,
   13.6122,       874,
   13.6367,       929,
   13.6613,       875,
   13.6858,       936,
   13.7103,       939,
   13.7349,       841,
   13.7594,       911,
   13.7839,       859,
   13.8085,       841,
    13.833,       863,
   13.8575,       867,
   13.8821,       819,
   13.9066,       880,
   13.9311,       853,
   13.9557,       857,
   13.9802,       842,
   14.0048,       866,
   14.0293,       855,
   14.0538,       876,
   14.0784,       891,
   14.1029,       834,
   14.1274,       804,
    14.152,       823,
   14.1765,       861,
    14.201,       898,
   14.2256,       873,
   14.2501,       905,
   14.2747,       850,
   14.2992,       937,
   14.3237,       905,
   14.3483,       919,
   14.3728,      1003,
   14.3973,       974,
   14.4219,       954,
   14.4464,       901,
   14.4709,       929,
   14.4955,       911,
     14.52,       861,
   14.5446,       918,
   14.5691,       930,
   14.5936,       918,
   14.6182,       955,
   14.6427,       940,
   14.6672,      1032,
   14.6918,      1090,
   14.7163,      1193,
   14.7408,      1323,
   14.7654,      1529,
   14.7899,      1728,
   14.8144,      1936,
    14.839,      2195,
   14.8635,      2153,
   14.8881,      2054,
   14.9126,      2068,
   14.9371,      1863,
   14.9617,      1672,
   14.9862,      1451,
   15.0107,      1329,
   15.0353,      1129,
   15.0598,      1034,
   15.0843,       962,
   15.1089,       964,
   15.1334,       913,
    15.158,       862,
   15.1825,       875,
    15.207,       793,
   15.2316,       782,
   15.2561,       718,
   15.2806,       757,
   15.3052,       770,
   15.3297,       772,
   15.3542,       780,
   15.3788,       743,
   15.4033,       677,
   15.4279,       723,
   15.4524,       737,
   15.4769,       718,
   15.5015,       675,
    15.526,       703,
   15.5505,       679,
   15.5751,       683,
   15.5996,       665,
   15.6241,       695,
   15.6487,       708,
   15.6732,       673,
   15.6977,       619,
   15.7223,       698,
   15.7468,       701,
   15.7714,       628,
   15.7959,       627,
   15.8204,       663,
    15.845,       655,
   15.8695,       668,
    15.894,       636,
   15.9186,       634,
   15.9431,       674,
   15.9676,       600,
   15.9922,       648,
   16.0167,       599,
   16.0413,       650,
   16.0658,       694,
   16.0903,       631,
   16.1149,       667,
   16.1394,       632,
   16.1639,       608,
   16.1885,       646,
    16.213,       684,
   16.2375,       789,
   16.2621,       781,
   16.2866,       765,
   16.3112,       735,
   16.3357,       744,
   16.3602,       700,
   16.3848,       737,
   16.4093,       663,
   16.4338,       653,
   16.4584,       605,
   16.4829,       572,
   16.5074,       581,
    16.532,       607,
   16.5565,       606,
    16.581,       572,
   16.6056,       568,
   16.6301,       606,
   16.6547,       561,
   16.6792,       591,
   16.7037,       566,
   16.7283,       581,
   16.7528,       593,
   16.7773,       585,
   16.8019,       608,
   16.8264,       577,
   16.8509,       594,
   16.8755,       569,
      16.9,       558,
   16.9246,       575,
   16.9491,       533,
   16.9736,       599,
   16.9982,       575,
   17.0227,       548,
   17.0472,       545,
   17.0718,       586,
   17.0963,       557,
   17.1208,       549,
   17.1454,       566,
   17.1699,       590,
   17.1945,       610,
    17.219,       584,
   17.2435,       549,
   17.2681,       585,
   17.2926,       533,
   17.3171,       609,
   17.3417,       574,
   17.3662,       630,
   17.3907,       633,
   17.4153,       645,
   17.4398,       673,
   17.4643,       692,
   17.4889,       671,
   17.5134,       678,
    17.538,       694,
   17.5625,       683,
    17.587,       683,
   17.6116,       762,
   17.6361,       729,
   17.6606,       707,
   17.6852,       717,
   17.7097,       735,
   17.7342,       762,
   17.7588,       946,
   17.7833,       893,
   17.8079,       896,
   17.8324,       819,
   17.8569,       835,
   17.8815,       798,
    17.906,       707,
   17.9305,       744,
   17.9551,       637,
   17.9796,       642,
   18.0041,       641,
   18.0287,       596,
   18.0532,       574,
   18.0778,       629,
   18.1023,       597,
   18.1268,       641,
   18.1514,       599,
   18.1759,       643,
   18.2004,       548,
    18.225,       634,
   18.2495,       599,
    18.274,       605,
   18.2986,       607,
   18.3231,       645,
   18.3476,       663,
   18.3722,       708,
   18.3967,       625,
   18.4213,       647,
   18.4458,       639,
   18.4703,       635,
   18.4949,       594,
   18.5194,       615,
   18.5439,       630,
   18.5685,       652,
    18.593,       588,
   18.6175,       596,
   18.6421,       620,
   18.6666,       632,
   18.6912,       606,
   18.7157,       598,
   18.7402,       621,
   18.7648,       649,
   18.7893,       606,
   18.8138,       661,
   18.8384,       646,
   18.8629,       666,
   18.8874,       617,
    18.912,       693,
   18.9365,       599,
   18.9611,       636,
   18.9856,       640,
   19.0101,       616,
   19.0347,       640,
   19.0592,       634,
   19.0837,       665,
   19.1083,       602,
   19.1328,       670,
   19.1573,       694,
   19.1819,       717,
   19.2064,       701,
    19.231,       734,
   19.2555,       735,
     19.28,       748,
   19.3046,       720,
   19.3291,       767,
   19.3536,       753,
   19.3782,       814,
   19.4027,       862,
   19.4272,       929,
   19.4518,       834,
   19.4763,       740,
   19.5008,       795,
   19.5254,       828,
   19.5499,       931,
   19.5745,       920,
    19.599,       901,
   19.6235,      1038,
   19.6481,      1099,
   19.6726,      1311,
   19.6971,      1457,
   19.7217,      1412,
   19.7462,      1420,
   19.7707,      1366,
   19.7953,      1244,
   19.8198,      1209,
   19.8444,      1201,
   19.8689,      1003,
   19.8934,       958,
    19.918,       838,
   19.9425,       779,
    19.967,       768,
   19.9916,       693,
   20.0161,       680,
   20.0406,       644,
   20.0652,       644,
   20.0897,       672,
   20.1143,       586,
   20.1388,       619,
   20.1633,       675,
   20.1879,       609,
   20.2124,       597,
   20.2369,       585,
   20.2615,       607,
    20.286,       584,
   20.3105,       573,
   20.3351,       598,
   20.3596,       627,
   20.3841,       662,
   20.4087,       623,
   20.4332,       658,
   20.4578,       635,
   20.4823,       604,
   20.5068,       619,
   20.5314,       648,
   20.5559,       613,
   20.5804,       580,
    20.605,       600,
   20.6295,       579,
    20.654,       618,
   20.6786,       565,
   20.7031,       622,
   20.7277,       559,
   20.7522,       531,
   20.7767,       596,
   20.8013,       584,
   20.8258,       563,
   20.8503,       580,
   20.8749,       603,
   20.8994,       539,
   20.9239,       592,
   20.9485,       539,
    20.973,       579,
   20.9976,       592,
   21.0221,       585,
   21.0466,       603,
   21.0712,       606,
   21.0957,       695,
   21.1202,       677,
   21.1448,       747,
   21.1693,       691,
   21.1938,       699,
   21.2184,       704,
   21.2429,       728,
   21.2674,       754,
    21.292,       895,
   21.3165,       829,
   21.3411,       790,
   21.3656,       733,
   21.3901,       664,
   21.4147,       739,
   21.4392,       696,
   21.4637,       679,
   21.4883,       645,
   21.5128,       642,
   21.5373,       657,
   21.5619,       658,
   21.5864,       646,
    21.611,       669,
   21.6355,       681,
     21.66,       680,
   21.6846,       777,
   21.7091,       812,
   21.7336,       925,
   21.7582,       817,
   21.7827,       828,
   21.8072,       781,
   21.8318,       814,
   21.8563,       883,
   21.8809,       895,
   21.9054,       902,
   21.9299,       916,
   21.9545,       905,
    21.979,       862,
   22.0035,       885,
   22.0281,       832,
   22.0526,       864,
   22.0771,       836,
   22.1017,       875,
   22.1262,       773,
   22.1507,       788,
   22.1753,       702,
   22.1998,       799,
   22.2244,       849,
   22.2489,       794,
   22.2734,       850,
    22.298,       987,
   22.3225,      1100,
    22.347,      1123,
   22.3716,      1270,
   22.3961,      1221,
   22.4206,      1297,
   22.4452,      1217,
   22.4697,      1063,
   22.4943,      1103,
   22.5188,      1040,
   22.5433,      1006,
   22.5679,       926,
   22.5924,       841,
   22.6169,       768,
   22.6415,       714,
    22.666,       716,
   22.6905,       692,
   22.7151,       634,
   22.7396,       622,
   22.7642,       588,
   22.7887,       654,
   22.8132,       651,
   22.8378,       634,
   22.8623,       646,
   22.8868,       612,
   22.9114,       637,
   22.9359,       600,
   22.9604,       614,
    22.985,       614,
   23.0095,       599,
    23.034,       573,
   23.0586,       547,
   23.0831,       585,
   23.1077,       567,
   23.1322,       588,
   23.1567,       571,
   23.1813,       575,
   23.2058,       575,
   23.2303,       551,
   23.2549,       560,
   23.2794,       564,
   23.3039,       655,
   23.3285,       581,
    23.353,       615,
   23.3776,       590,
   23.4021,       585,
   23.4266,       593,
   23.4512,       567,
   23.4757,       548,
   23.5002,       550,
   23.5248,       584,
   23.5493,       527,
   23.5738,       574,
   23.5984,       559,
   23.6229,       563,
   23.6475,       596,
    23.672,       559,
   23.6965,       550,
   23.7211,       569,
   23.7456,       538,
   23.7701,       543,
   23.7947,       568,
   23.8192,       537,
   23.8437,       574,
   23.8683,       551,
   23.8928,       592,
   23.9173,       584,
   23.9419,       578,
   23.9664,       564,
    23.991,       591,
   24.0155,       550,
     24.04,       564,
   24.0646,       550,
   24.0891,       512,
   24.1136,       578,
   24.1382,       588,
   24.1627,       575,
   24.1872,       591,
   24.2118,       568,
   24.2363,       610,
   24.2609,       622,
   24.2854,       610,
   24.3099,       612,
   24.3345,       601,
    24.359,       585,
   24.3835,       599,
   24.4081,       652,
   24.4326,       576,
   24.4571,       611,
   24.4817,       604,
   24.5062,       617,
   24.5308,       594,
   24.5553,       603,
   24.5798,       626,
   24.6044,       670,
   24.6289,       628,
   24.6534,       650,
    24.678,       715,
   24.7025,       668,
    24.727,       713,
   24.7516,       783,
   24.7761,       888,
   24.8006,       850,
   24.8252,       832,
   24.8497,       845,
   24.8743,       821,
   24.8988,       802,
   24.9233,       740,
   24.9479,       761,
   24.9724,       757,
   24.9969,       771,
   25.0215,       675,
    25.046,       734,
   25.0705,       686,
   25.0951,       707,
   25.1196,       703,
   25.1442,       643,
   25.1687,       675,
   25.1932,       670,
   25.2178,       658,
   25.2423,       586,
   25.2668,       615,
   25.2914,       626,
   25.3159,       705,
   25.3404,       633,
    25.365,       667,
   25.3895,       609,
   25.4141,       638,
   25.4386,       662,
   25.4631,       678,
   25.4877,       705,
   25.5122,       699,
   25.5367,       636,
   25.5613,       605,
   25.5858,       581,
   25.6103,       637,
   25.6349,       662,
   25.6594,       665,
   25.6839,       551,
   25.7085,       591,
    25.733,       609,
   25.7576,       620,
   25.7821,       620,
   25.8066,       614,
   25.8312,       635,
   25.8557,       642,
   25.8802,       582,
   25.9048,       587,
   25.9293,       570,
   25.9538,       563,
   25.9784,       577,
   26.0029,       557,
   26.0275,       581,
    26.052,       593,
   26.0765,       580,
   26.1011,       612,
   26.1256,       605,
   26.1501,       621,
   26.1747,       604,
   26.1992,       605,
   26.2237,       533,
   26.2483,       615,
   26.2728,       636,
   26.2974,       618,
   26.3219,       542,
   26.3464,       631,
    26.371,       618,
   26.3955,       562,
     26.42,       626,
   26.4446,       680,
   26.4691,       614,
   26.4936,       668,
   26.5182,       643,
   26.5427,       651,
   26.5673,       617,
   26.5918,       695,
   26.6163,       675,
   26.6409,       675,
   26.6654,       619,
   26.6899,       694,
   26.7145,       673,
    26.739,       657,
   26.7635,       675,
   26.7881,       676,
   26.8126,       688,
   26.8371,       694,
   26.8617,       706,
   26.8862,       655,
   26.9108,       655,
   26.9353,       665,
   26.9598,       705,
   26.9844,       717,
   27.0089,       681,
   27.0334,       672,
    27.058,       639,
   27.0825,       638,
    27.107,       691,
   27.1316,       626,
   27.1561,       619,
   27.1807,       651,
   27.2052,       648,
   27.2297,       602,
   27.2543,       632,
   27.2788,       640,
   27.3033,       632,
   27.3279,       587,
   27.3524,       549,
   27.3769,       593,
   27.4015,       610,
    27.426,       609,
   27.4506,       592,
   27.4751,       586,
   27.4996,       614,
   27.5242,       635,
   27.5487,       572,
   27.5732,       633,
   27.5978,       630,
   27.6223,       642,
   27.6468,       645,
   27.6714,       671,
   27.6959,       637,
   27.7204,       631,
    27.745,       630,
   27.7695,       685,
   27.7941,       677,
   27.8186,       670,
   27.8431,       607,
   27.8677,       631,
   27.8922,       641,
   27.9167,       687,
   27.9413,       593,
   27.9658,       612,
   27.9903,       625,
   28.0149,       627,
   28.0394,       605,
    28.064,       586,
   28.0885,       604,
    28.113,       596,
   28.1376,       634,
   28.1621,       617,
   28.1866,       667,
   28.2112,       576,
   28.2357,       639,
   28.2602,       588,
   28.2848,       584,
   28.3093,       655,
   28.3339,       620,
   28.3584,       637,
   28.3829,       646,
   28.4075,       602,
    28.432,       687,
   28.4565,       717,
   28.4811,       652,
   28.5056,       660,
   28.5301,       646,
   28.5547,       578,
   28.5792,       667,
   28.6037,       607,
   28.6283,       623,
   28.6528,       649,
   28.6774,       660,
   28.7019,       680,
   28.7264,       649,
    28.751,       609,
   28.7755,       627,
      28.8,       661,
   28.8246,       618,
   28.8491,       670,
   28.8736,       639,
   28.8982,       626,
   28.9227,       624,
   28.9473,       610,
   28.9718,       618,
   28.9963,       659,
   29.0209,       595,
   29.0454,       591,
   29.0699,       643,
   29.0945,       596,
    29.119,       555,
   29.1435,       592,
   29.1681,       611,
   29.1926,       567,
   29.2172,       616,
   29.2417,       599,
   29.2662,       563,
   29.2908,       614,
   29.3153,       592,
   29.3398,       542,
   29.3644,       607,
   29.3889,       588,
   29.4134,       581,
    29.438,       574,
   29.4625,       595,
    29.487,       530,
   29.5116,       571,
   29.5361,       600,
   29.5607,       653,
   29.5852,       568,
   29.6097,       582,
   29.6343,       591,
   29.6588,       588,
   29.6833,       607,
   29.7079,       590,
   29.7324,       562,
   29.7569,       572,
   29.7815,       584,
    29.806,       613,
   29.8306,       606,
   29.8551,       581,
   29.8796,       630,
   29.9042,       610,
   29.9287,       591,
   29.9532,       623,
   29.9778,       655,
   30.0023,       639,
   30.0268,       656,
   30.0514,       635,
   30.0759,       632,
   30.1005,       629,
    30.125,       628,
   30.1495,       651,
   30.1741,       609,
   30.1986,       620,
   30.2231,       614,
   30.2477,       627,
   30.2722,       639,
   30.2967,       620,
   30.3213,       641,
   30.3458,       619,
   30.3703,       639,
   30.3949,       614,
   30.4194,       572,
    30.444,       611,
   30.4685,       583,
    30.493,       629,
   30.5176,       549,
   30.5421,       617,
   30.5666,       602,
   30.5912,       583,
   30.6157,       600,
   30.6402,       590,
   30.6648,       603,
   30.6893,       618,
   30.7139,       602,
   30.7384,       630,
   30.7629,       623,
   30.7875,       608,
    30.812,       594,
   30.8365,       572,
   30.8611,       558,
   30.8856,       601,
   30.9101,       585,
   30.9347,       609,
   30.9592,       595,
   30.9838,       567,
   31.0083,       575,
   31.0328,       531,
   31.0574,       547,
   31.0819,       586,
   31.1064,       555,
    31.131,       552,
   31.1555,       562,
     31.18,       579,
   31.2046,       636,
   31.2291,       608,
   31.2536,       643,
   31.2782,       625,
   31.3027,       664,
   31.3273,       673,
   31.3518,       665,
   31.3763,       609,
   31.4009,       654,
   31.4254,       615,
   31.4499,       672,
   31.4745,       563,
    31.499,       635,
   31.5235,       698,
   31.5481,       642,
   31.5726,       585,
   31.5972,       610,
   31.6217,       611,
   31.6462,       606,
   31.6708,       628,
   31.6953,       611,
   31.7198,       631,
   31.7444,       578,
   31.7689,       646,
   31.7934,       668,
    31.818,       645,
   31.8425,       607,
   31.8671,       718,
   31.8916,       624,
   31.9161,       679,
   31.9407,       652,
   31.9652,       694,
   31.9897,       633,
   32.0143,       607,
   32.0388,       625,
   32.0633,       624,
   32.0879,       629,
   32.1124,       657,
   32.1369,       595,
   32.1615,       594,
    32.186,       571,
   32.2106,       577,
   32.2351,       545,
   32.2596,       577,
   32.2842,       565,
   32.3087,       579,
   32.3332,       545,
   32.3578,       577,
   32.3823,       570,
   32.4068,       565,
   32.4314,       510,
   32.4559,       519,
   32.4805,       548,
    32.505,       550,
   32.5295,       542,
   32.5541,       589,
   32.5786,       516,
   32.6031,       554,
   32.6277,       581,
   32.6522,       547,
   32.6767,       542,
   32.7013,       524,
   32.7258,       547,
   32.7504,       532,
   32.7749,       552,
   32.7994,       494,
    32.824,       559,
   32.8485,       523,
    32.873,       520,
   32.8976,       547,
   32.9221,       521,
   32.9466,       543,
   32.9712,       516,
   32.9957,       520,
   33.0203,       525,
   33.0448,       554,
   33.0693,       554,
   33.0939,       561,
   33.1184,       540,
   33.1429,       574,
   33.1675,       558,
    33.192,       571,
   33.2165,       574,
   33.2411,       555,
   33.2656,       548,
   33.2901,       552,
   33.3147,       541,
   33.3392,       511,
   33.3638,       547,
   33.3883,       552,
   33.4128,       566,
   33.4374,       508,
   33.4619,       507,
   33.4864,       536,
    33.511,       546,
   33.5355,       575,
     33.56,       531,
   33.5846,       542,
   33.6091,       512,
   33.6337,       507,
   33.6582,       486,
   33.6827,       500,
   33.7073,       495,
   33.7318,       520,
   33.7563,       490,
   33.7809,       546,
   33.8054,       477,
   33.8299,       527,
   33.8545,       513,
    33.879,       525,
   33.9036,       505,
   33.9281,       503,
   33.9526,       499,
   33.9772,       533,
   34.0017,       505,
   34.0262,       497,
   34.0508,       478,
   34.0753,       551,
   34.0998,       489,
   34.1244,       523,
   34.1489,       526,
   34.1734,       532,
    34.198,       497,
   34.2225,       487,
   34.2471,       481,
   34.2716,       490,
   34.2961,       481,
   34.3207,       536,
   34.3452,       501,
   34.3697,       475,
   34.3943,       529,
   34.4188,       502,
   34.4433,       511,
   34.4679,       490,
   34.4924,       499,
    34.517,       545,
   34.5415,       488,
    34.566,       486,
   34.5906,       478,
   34.6151,       498,
   34.6396,       504,
   34.6642,       547,
   34.6887,       537,
   34.7132,       542,
   34.7378,       533,
   34.7623,       518,
   34.7869,       562,
   34.8114,       503,
   34.8359,       541,
   34.8605,       516,
    34.885,       543,
   34.9095,       499,
   34.9341,       519,
   34.9586,       514,
   34.9831,       483,
   35.0077,       538,
   35.0322,       482,
   35.0567,       505,
   35.0813,       530,
   35.1058,       473,
   35.1304,       499,
   35.1549,       506,
   35.1794,       491,
    35.204,       507,
   35.2285,       502,
    35.253,       502,
   35.2776,       474,
   35.3021,       495,
   35.3266,       506,
   35.3512,       464,
   35.3757,       492,
   35.4003,       519,
   35.4248,       488,
   35.4493,       503,
   35.4739,       522,
   35.4984,       454,
   35.5229,       514,
   35.5475,       486,
    35.572,       478,
   35.5965,       562,
   35.6211,       515,
   35.6456,       522,
   35.6702,       515,
   35.6947,       529,
   35.7192,       548,
   35.7438,       575,
   35.7683,       535,
   35.7928,       551,
   35.8174,       492,
   35.8419,       517,
   35.8664,       491,
    35.891,       515,
   35.9155,       540,
     35.94,       508,
   35.9646,       527,
   35.9891,       514,
   36.0137,       566,
   36.0382,       516,
   36.0627,       520,
   36.0873,       542,
   36.1118,       511,
   36.1363,       483,
   36.1609,       496,
   36.1854,       533,
   36.2099,       507,
   36.2345,       518,
    36.259,       497,
   36.2836,       521,
   36.3081,       554,
   36.3326,       504,
   36.3572,       473,
   36.3817,       519,
   36.4062,       436,
   36.4308,       438,
   36.4553,       442,
   36.4798,       491,
   36.5044,       488,
   36.5289,       476,
   36.5535,       452,
    36.578,       403,
   36.6025,       397,
   36.6271,       431,
   36.6516,       454,
   36.6761,       439,
   36.7007,       469,
   36.7252,       446,
   36.7497,       438,
   36.7743,       447,
   36.7988,       444,
   36.8233,       416,
   36.8479,       444,
   36.8724,       457,
    36.897,       432,
   36.9215,       413,
    36.946,       419,
   36.9706,       425,
   36.9951,       455,
   37.0196,       419,
   37.0442,       407,
   37.0687,       419,
   37.0932,       401,
   37.1178,       442,
   37.1423,       470,
   37.1669,       447,
   37.1914,       434,
   37.2159,       460,
   37.2405,       409,
    37.265,       439,
   37.2895,       464,
   37.3141,       469,
   37.3386,       442,
   37.3631,       431,
   37.3877,       433,
   37.4122,       421,
   37.4368,       445,
   37.4613,       453,
   37.4858,       460,
   37.5104,       425,
   37.5349,       421,
   37.5594,       430,
    37.584,       408,
   37.6085,       421,
    37.633,       445,
   37.6576,       416,
   37.6821,       397,
   37.7066,       431,
   37.7312,       424,
   37.7557,       430,
   37.7803,       389,
   37.8048,       401,
   37.8293,       437,
   37.8539,       418,
   37.8784,       405,
   37.9029,       404,
   37.9275,       406,
    37.952,       399,
   37.9765,       382,
   38.0011,       415,
   38.0256,       414,
   38.0502,       401,
   38.0747,       431,
   38.0992,       399,
   38.1238,       412,
   38.1483,       392,
   38.1728,       391,
   38.1974,       385,
   38.2219,       381,
   38.2464,       402,
    38.271,       391,
   38.2955,       413,
   38.3201,       391,
   38.3446,       386,
   38.3691,       366,
   38.3937,       396,
   38.4182,       375,
   38.4427,       408,
   38.4673,       377,
   38.4918,       393,
   38.5163,       377,
   38.5409,       437,
   38.5654,       386,
   38.5899,       398,
   38.6145,       364,
    38.639,       366,
   38.6636,       341,
   38.6881,       396,
   38.7126,       401,
   38.7372,       414,
   38.7617,       404,
   38.7862,       363,
   38.8108,       394,
   38.8353,       395,
   38.8598,       452,
   38.8844,       451,
   38.9089,       411,
   38.9335,       446,
    38.958,       391,
   38.9825,       380,
   39.0071,       428,
   39.0316,       405,
   39.0561,       429,
   39.0807,       432,
   39.1052,       423,
   39.1297,       426,
   39.1543,       396,
   39.1788,       442,
   39.2034,       420,
   39.2279,       428,
   39.2524,       404,
    39.277,       434,
   39.3015,       435,
    39.326,       465,
   39.3506,       445,
   39.3751,       468,
   39.3996,       441,
   39.4242,       415,
   39.4487,       463,
   39.4732,       486,
   39.4978,       443,
   39.5223,       471,
   39.5469,       461,
   39.5714,       413,
   39.5959,       438,
   39.6205,       440,
    39.645,       483,
   39.6695,       445,
   39.6941,       366,
   39.7186,       429,
   39.7431,       468,
   39.7677,       443,
   39.7922,       443,
   39.8168,       455,
   39.8413,       485,
   39.8658,       454,
   39.8904,       465,
   39.9149,       429,
   39.9394,       422,
    39.964,       423,
   39.9885,       419,
