;RAW4.00
[RawHeader]
Date=03/16/2022
EstimatedTotalTime=633.253
FurtherDQLReading=0
HardwareIndicator=65519
MeasuredTotalTime=633.253
MeasurementFlag=1
NumberOfMeasuredRanges=1
NumberOfRanges=1
Time=13:30:19

[VarInfo]
Type=USER
Flags=0
Value=Lab Manager

[VarInfo]
Type=SAMPLEID
Flags=0
Value=

[VarInfo]
Type=COMMENT
Flags=0
Value=

[VarInfo]
Type=UTF
Flags=0
Value=

[VarInfo]
Type=CREATOR
Flags=0
Value=BrmlToV4Converter

[VarInfo]
Type=CREATOR_VERSION
Flags=0
Value=7.3.1.0

[HardwareConfiguration]
AbsorptionFactor=9999
ActivateAbsorber=0
Alpha1=0.7093
Alpha2=0.71359
AlphaAverage=0.71073
AlphaRatio=0.5
Analyzer=0
Anode=Mo
AntiScatteringSlit=18
BeamOpticsFlags=0
Beta=0.63229
BetaRelativeIntensity=0
DeactivateAbsorber=0
DetectorSlit=9999
DivergenceSlit=0.2
GoniometerControl=0
GoniometerDiameter=560
GoniometerModel=512
GoniometerStage=7
Monochromator=0
NearSampleSlit=9999
PrimarySollerSlit=2.5
SampleChanger=0
SecondSollerSlit=9999
SynchronousAxis=0
ThinFilmAttachment=9999
WaveUnit=A

[RangeHeader]
ActuallyUsedLambda=0.71073
AdditionalDetectorMask=257
DataRecordLength=4
DelayTime=0
DisplayPlaneNumber=0
EstimatedScanTime=633
ExtraParametersMask=0
GeneratorCurrent=40
GeneratorVoltage=50
Increment=0.0245361
Increment3=0
NumberOfCompletedData=1427
NumberOfCounts=1
NumberOfDetectors=0
NumberOfDrives=2
NumberOfEncoderDrives=0
NumberOfMeasuredData=1427
NumberOfVaryingParameters=0
RangeStartTime=0
RotationSpeed=60
ScanMode=1
ScanType=Locked Coupled
SimulatedMeasConditions=0
SlitChangerIn=0
SmootingWidth=0
Start=5
Steps=1427
SynchronousRotation=0
Time=76.8

[VarInfo]
Type=PSD_DISCRIM
Flags=0
Value=0.488;0.518

[PSD]
ActualTwoTheta=9999
FirstUsedChannel=0
FixedPSD=0
PSDOpening=2.94433
PSDType=5

[Drive]
DriveFlags=1
DriveName=2Theta
DriveNumber=2
DriveOffset=0
OffsetIndex=0
OscillationAmplitude=0
OscillationSpeed=0
StartPosition=5

[Drive]
DriveFlags=1
DriveName=Theta
DriveNumber=1
DriveOffset=0
OffsetIndex=0
OscillationAmplitude=0
OscillationSpeed=0
StartPosition=2.5

[Data]
     Angle,       PSD,
         5,        89,
   5.02454,       110,
   5.04907,        78,
   5.07361,       162,
   5.09814,       108,
   5.12268,        98,
   5.14722,       139,
   5.17175,        75,
   5.19629,       130,
   5.22083,       129,
   5.24536,        91,
    5.2699,       152,
   5.29443,        72,
   5.31897,       132,
   5.34351,       112,
   5.36804,        88,
   5.39258,       165,
   5.41711,        86,
   5.44165,       145,
   5.46619,       122,
   5.49072,       116,
   5.51526,       137,
   5.53979,        86,
   5.56433,       129,
   5.58887,       143,
    5.6134,        82,
   5.63794,       126,
   5.66248,        92,
   5.68701,       140,
   5.71155,       148,
   5.73608,       103,
   5.76062,       132,
   5.78516,        93,
   5.80969,       143,
   5.83423,       120,
   5.85876,       104,
    5.8833,       134,
   5.90784,        87,
   5.93237,       153,
   5.95691,       105,
   5.98144,        99,
   6.00598,       133,
   6.03052,        85,
   6.05505,       143,
   6.07959,        99,
   6.10413,        91,
   6.12866,       138,
    6.1532,        78,
   6.17773,       141,
   6.20227,       109,
   6.22681,        88,
   6.25134,       152,
   6.27588,        87,
   6.30041,       118,
   6.32495,       134,
   6.34949,       102,
   6.37402,       127,
   6.39856,        66,
    6.4231,       149,
   6.44763,       125,
   6.47217,        92,
    6.4967,       127,
   6.52124,        82,
   6.54578,       156,
   6.57031,       114,
   6.59485,        93,
   6.61938,       127,
   6.64392,        76,
   6.66846,       137,
   6.69299,       121,
   6.71753,        97,
   6.74206,       142,
    6.7666,        85,
   6.79114,       137,
   6.81567,       108,
   6.84021,       116,
   6.86475,       149,
   6.88928,        89,
   6.91382,       136,
   6.93835,       130,
   6.96289,        91,
   6.98743,       140,
   7.01196,        92,
    7.0365,       129,
   7.06103,       108,
   7.08557,        89,
   7.11011,       137,
   7.13464,        97,
   7.15918,       168,
   7.18371,       127,
   7.20825,        97,
   7.23279,       157,
   7.25732,        94,
   7.28186,       123,
    7.3064,       120,
   7.33093,        99,
   7.35547,       150,
      7.38,        85,
   7.40454,       133,
   7.42908,       145,
   7.45361,       121,
   7.47815,       168,
   7.50268,        93,
   7.52722,       149,
   7.55176,       143,
   7.57629,       110,
   7.60083,       180,
   7.62536,        93,
    7.6499,       131,
   7.67444,       150,
   7.69897,       103,
   7.72351,       149,
   7.74805,       111,
   7.77258,       164,
   7.79712,       128,
   7.82165,       101,
   7.84619,       155,
   7.87073,       114,
   7.89526,       158,
    7.9198,       136,
   7.94433,       124,
   7.96887,       176,
   7.99341,       124,
   8.01794,       172,
   8.04248,       157,
   8.06702,       111,
   8.09155,       177,
   8.11609,        98,
   8.14062,       140,
   8.16516,       150,
    8.1897,       131,
   8.21423,       184,
   8.23877,       148,
    8.2633,       163,
   8.28784,       164,
   8.31238,       136,
   8.33691,       182,
   8.36145,       119,
   8.38598,       191,
   8.41052,       162,
   8.43506,       139,
   8.45959,       206,
   8.48413,       116,
   8.50867,       210,
    8.5332,       197,
   8.55774,       142,
   8.58227,       197,
   8.60681,       135,
   8.63135,       213,
   8.65588,       161,
   8.68042,       134,
   8.70495,       219,
   8.72949,       144,
   8.75403,       205,
   8.77856,       183,
    8.8031,       145,
   8.82763,       253,
   8.85217,       157,
   8.87671,       210,
   8.90124,       179,
   8.92578,       157,
   8.95032,       237,
   8.97485,       143,
   8.99939,       214,
   9.02392,       218,
   9.04846,       179,
     9.073,       275,
   9.09753,       175,
   9.12207,       266,
    9.1466,       216,
   9.17114,       195,
   9.19568,       269,
   9.22021,       174,
   9.24475,       274,
   9.26929,       207,
   9.29382,       207,
   9.31836,       263,
   9.34289,       194,
   9.36743,       264,
   9.39197,       231,
    9.4165,       220,
   9.44104,       330,
   9.46557,       226,
   9.49011,       316,
   9.51465,       311,
   9.53918,       318,
   9.56372,       453,
   9.58825,       352,
   9.61279,       371,
   9.63733,       343,
   9.66186,       332,
    9.6864,       350,
   9.71094,       289,
   9.73547,       365,
   9.76001,       360,
   9.78454,       334,
   9.80908,       376,
   9.83362,       319,
   9.85815,       385,
   9.88269,       371,
   9.90722,       354,
   9.93176,       440,
    9.9563,       352,
   9.98083,       423,
   10.0054,       403,
   10.0299,       364,
   10.0544,       468,
    10.079,       401,
   10.1035,       450,
    10.128,       445,
   10.1526,       396,
   10.1771,       462,
   10.2017,       405,
   10.2262,       526,
   10.2507,       428,
   10.2753,       465,
   10.2998,       535,
   10.3243,       402,
   10.3489,       492,
   10.3734,       514,
   10.3979,       492,
   10.4225,       579,
    10.447,       477,
   10.4716,       566,
   10.4961,       576,
   10.5206,       554,
   10.5452,       652,
   10.5697,       572,
   10.5942,       594,
   10.6188,       579,
   10.6433,       576,
   10.6678,       625,
   10.6924,       554,
   10.7169,       597,
   10.7415,       600,
    10.766,       587,
   10.7905,       629,
   10.8151,       569,
   10.8396,       644,
   10.8641,       689,
   10.8887,       611,
   10.9132,       675,
   10.9377,       600,
   10.9623,       683,
   10.9868,       704,
   11.0113,       704,
   11.0359,       742,
   11.0604,       683,
    11.085,       740,
   11.1095,       742,
    11.134,       772,
   11.1586,       844,
   11.1831,       784,
   11.2076,       930,
   11.2322,       920,
   11.2567,      1014,
   11.2812,      1219,
   11.3058,      1316,
   11.3303,      1440,
   11.3549,      1506,
   11.3794,      1452,
   11.4039,      1302,
   11.4285,      1246,
    11.453,      1111,
   11.4775,      1012,
   11.5021,       917,
   11.5266,       967,
   11.5511,       908,
   11.5757,       904,
   11.6002,       882,
   11.6248,       889,
   11.6493,       890,
   11.6738,       847,
   11.6984,       814,
   11.7229,       898,
   11.7474,       888,
    11.772,       870,
   11.7965,       877,
    11.821,       881,
   11.8456,       883,
   11.8701,       917,
   11.8946,       927,
   11.9192,       962,
   11.9437,       930,
   11.9683,       983,
   11.9928,       926,
   12.0173,       931,
   12.0419,       951,
   12.0664,       979,
   12.0909,      1027,
   12.1155,      1030,
     12.14,      1143,
   12.1645,      1164,
   12.1891,      1245,
   12.2136,      1396,
   12.2382,      1516,
   12.2627,      1812,
   12.2872,      1996,
   12.3118,      2286,
   12.3363,      2318,
   12.3608,      2261,
   12.3854,      2015,
   12.4099,      1855,
   12.4344,      1616,
    12.459,      1440,
   12.4835,      1315,
   12.5081,      1236,
   12.5326,      1147,
   12.5571,      1071,
   12.5817,      1061,
   12.6062,      1037,
   12.6307,      1025,
   12.6553,      1008,
   12.6798,      1027,
   12.7043,       958,
   12.7289,       951,
   12.7534,       968,
    12.778,       931,
   12.8025,       980,
    12.827,       934,
   12.8516,       913,
   12.8761,       973,
   12.9006,       916,
   12.9252,       929,
   12.9497,       977,
   12.9742,       929,
   12.9988,       939,
   13.0233,       924,
   13.0478,       978,
   13.0724,       981,
   13.0969,       932,
   13.1215,       961,
    13.146,       916,
   13.1705,       953,
   13.1951,       959,
   13.2196,       984,
   13.2441,      1040,
   13.2687,      1082,
   13.2932,      1220,
   13.3177,      1350,
   13.3423,      1686,
   13.3668,      2088,
   13.3914,      1911,
   13.4159,      1707,
   13.4404,      1631,
    13.465,      1580,
   13.4895,      1284,
    13.514,      1156,
   13.5386,      1029,
   13.5631,       894,
   13.5876,       904,
   13.6122,       917,
   13.6367,       931,
   13.6613,       936,
   13.6858,       899,
   13.7103,       887,
   13.7349,       885,
   13.7594,       917,
   13.7839,       909,
   13.8085,       871,
    13.833,       836,
   13.8575,       899,
   13.8821,       880,
   13.9066,       915,
   13.9311,       870,
   13.9557,       853,
   13.9802,       810,
   14.0048,       844,
   14.0293,       796,
   14.0538,       829,
   14.0784,       837,
   14.1029,       890,
   14.1274,       806,
    14.152,       839,
   14.1765,       843,
    14.201,       838,
   14.2256,       824,
   14.2501,       911,
   14.2747,       866,
   14.2992,       850,
   14.3237,       889,
   14.3483,       818,
   14.3728,       933,
   14.3973,       916,
   14.4219,       965,
   14.4464,       889,
   14.4709,       880,
   14.4955,       870,
     14.52,       912,
   14.5446,       891,
   14.5691,       857,
   14.5936,       871,
   14.6182,       930,
   14.6427,       936,
   14.6672,       981,
   14.6918,       904,
   14.7163,       953,
   14.7408,      1088,
   14.7654,      1202,
   14.7899,      1294,
   14.8144,      1607,
    14.839,      1795,
   14.8635,      1974,
   14.8881,      2024,
   14.9126,      2058,
   14.9371,      1995,
   14.9617,      1786,
   14.9862,      1689,
   15.0107,      1480,
   15.0353,      1274,
   15.0598,      1147,
   15.0843,      1076,
   15.1089,      1019,
   15.1334,       945,
    15.158,       904,
   15.1825,       851,
    15.207,       798,
   15.2316,       808,
   15.2561,       794,
   15.2806,       779,
   15.3052,       733,
   15.3297,       773,
   15.3542,       761,
   15.3788,       686,
   15.4033,       784,
   15.4279,       765,
   15.4524,       710,
   15.4769,       714,
   15.5015,       713,
    15.526,       734,
   15.5505,       721,
   15.5751,       753,
   15.5996,       693,
   15.6241,       688,
   15.6487,       614,
   15.6732,       706,
   15.6977,       674,
   15.7223,       709,
   15.7468,       688,
   15.7714,       667,
   15.7959,       617,
   15.8204,       633,
    15.845,       636,
   15.8695,       648,
    15.894,       628,
   15.9186,       657,
   15.9431,       664,
   15.9676,       650,
   15.9922,       663,
   16.0167,       600,
   16.0413,       672,
   16.0658,       627,
   16.0903,       630,
   16.1149,       662,
   16.1394,       594,
   16.1639,       587,
   16.1885,       587,
    16.213,       636,
   16.2375,       666,
   16.2621,       720,
   16.2866,       755,
   16.3112,       802,
   16.3357,       686,
   16.3602,       679,
   16.3848,       651,
   16.4093,       701,
   16.4338,       626,
   16.4584,       621,
   16.4829,       592,
   16.5074,       589,
    16.532,       624,
   16.5565,       610,
    16.581,       626,
   16.6056,       582,
   16.6301,       589,
   16.6547,       595,
   16.6792,       579,
   16.7037,       554,
   16.7283,       567,
   16.7528,       570,
   16.7773,       543,
   16.8019,       542,
   16.8264,       551,
   16.8509,       576,
   16.8755,       577,
      16.9,       585,
   16.9246,       567,
   16.9491,       586,
   16.9736,       566,
   16.9982,       571,
   17.0227,       570,
   17.0472,       600,
   17.0718,       582,
   17.0963,       569,
   17.1208,       575,
   17.1454,       570,
   17.1699,       587,
   17.1945,       588,
    17.219,       557,
   17.2435,       546,
   17.2681,       567,
   17.2926,       569,
   17.3171,       608,
   17.3417,       578,
   17.3662,       579,
   17.3907,       616,
   17.4153,       596,
   17.4398,       593,
   17.4643,       643,
   17.4889,       638,
   17.5134,       664,
    17.538,       671,
   17.5625,       662,
    17.587,       677,
   17.6116,       675,
   17.6361,       700,
   17.6606,       665,
   17.6852,       688,
   17.7097,       680,
   17.7342,       667,
   17.7588,       761,
   17.7833,       789,
   17.8079,       891,
   17.8324,       866,
   17.8569,       788,
   17.8815,       782,
    17.906,       741,
   17.9305,       704,
   17.9551,       713,
   17.9796,       666,
   18.0041,       697,
   18.0287,       692,
   18.0532,       583,
   18.0778,       643,
   18.1023,       601,
   18.1268,       615,
   18.1514,       563,
   18.1759,       620,
   18.2004,       589,
    18.225,       601,
   18.2495,       618,
    18.274,       612,
   18.2986,       584,
   18.3231,       616,
   18.3476,       650,
   18.3722,       633,
   18.3967,       629,
   18.4213,       627,
   18.4458,       600,
   18.4703,       629,
   18.4949,       624,
   18.5194,       598,
   18.5439,       604,
   18.5685,       574,
    18.593,       574,
   18.6175,       611,
   18.6421,       608,
   18.6666,       598,
   18.6912,       580,
   18.7157,       653,
   18.7402,       616,
   18.7648,       568,
   18.7893,       627,
   18.8138,       597,
   18.8384,       651,
   18.8629,       623,
   18.8874,       602,
    18.912,       617,
   18.9365,       571,
   18.9611,       605,
   18.9856,       651,
   19.0101,       598,
   19.0347,       633,
   19.0592,       622,
   19.0837,       610,
   19.1083,       622,
   19.1328,       622,
   19.1573,       655,
   19.1819,       646,
   19.2064,       694,
    19.231,       731,
   19.2555,       751,
     19.28,       725,
   19.3046,       725,
   19.3291,       650,
   19.3536,       726,
   19.3782,       722,
   19.4027,       748,
   19.4272,       794,
   19.4518,       844,
   19.4763,       830,
   19.5008,       808,
   19.5254,       825,
   19.5499,       758,
   19.5745,       793,
    19.599,       791,
   19.6235,       829,
   19.6481,       969,
   19.6726,      1002,
   19.6971,      1151,
   19.7217,      1324,
   19.7462,      1382,
   19.7707,      1351,
   19.7953,      1285,
   19.8198,      1258,
   19.8444,      1160,
   19.8689,      1182,
   19.8934,      1051,
    19.918,       980,
   19.9425,       865,
    19.967,       813,
   19.9916,       785,
   20.0161,       736,
   20.0406,       663,
   20.0652,       690,
   20.0897,       663,
   20.1143,       626,
   20.1388,       680,
   20.1633,       567,
   20.1879,       590,
   20.2124,       620,
   20.2369,       601,
   20.2615,       597,
    20.286,       606,
   20.3105,       621,
   20.3351,       620,
   20.3596,       633,
   20.3841,       593,
   20.4087,       551,
   20.4332,       650,
   20.4578,       645,
   20.4823,       652,
   20.5068,       579,
   20.5314,       634,
   20.5559,       617,
   20.5804,       619,
    20.605,       574,
   20.6295,       561,
    20.654,       636,
   20.6786,       578,
   20.7031,       578,
   20.7277,       550,
   20.7522,       579,
   20.7767,       547,
   20.8013,       511,
   20.8258,       560,
   20.8503,       527,
   20.8749,       523,
   20.8994,       552,
   20.9239,       542,
   20.9485,       567,
    20.973,       565,
   20.9976,       564,
   21.0221,       581,
   21.0466,       578,
   21.0712,       605,
   21.0957,       571,
   21.1202,       611,
   21.1448,       659,
   21.1693,       709,
   21.1938,       675,
   21.2184,       679,
   21.2429,       684,
   21.2674,       713,
    21.292,       776,
   21.3165,       853,
   21.3411,       811,
   21.3656,       752,
   21.3901,       715,
   21.4147,       652,
   21.4392,       701,
   21.4637,       687,
   21.4883,       702,
   21.5128,       614,
   21.5373,       623,
   21.5619,       606,
   21.5864,       599,
    21.611,       610,
   21.6355,       607,
     21.66,       608,
   21.6846,       631,
   21.7091,       729,
   21.7336,       793,
   21.7582,       842,
   21.7827,       834,
   21.8072,       762,
   21.8318,       699,
   21.8563,       733,
   21.8809,       850,
   21.9054,       834,
   21.9299,       848,
   21.9545,       840,
    21.979,       854,
   22.0035,       849,
   22.0281,       855,
   22.0526,       791,
   22.0771,       834,
   22.1017,       832,
   22.1262,       809,
   22.1507,       799,
   22.1753,       746,
   22.1998,       749,
   22.2244,       716,
   22.2489,       735,
   22.2734,       801,
    22.298,       851,
   22.3225,       913,
    22.347,       980,
   22.3716,      1031,
   22.3961,      1186,
   22.4206,      1235,
   22.4452,      1154,
   22.4697,      1110,
   22.4943,      1145,
   22.5188,      1116,
   22.5433,      1058,
   22.5679,      1061,
   22.5924,       898,
   22.6169,       874,
   22.6415,       814,
    22.666,       762,
   22.6905,       690,
   22.7151,       651,
   22.7396,       631,
   22.7642,       610,
   22.7887,       616,
   22.8132,       595,
   22.8378,       674,
   22.8623,       591,
   22.8868,       636,
   22.9114,       616,
   22.9359,       582,
   22.9604,       600,
    22.985,       614,
   23.0095,       573,
    23.034,       544,
   23.0586,       551,
   23.0831,       560,
   23.1077,       549,
   23.1322,       538,
   23.1567,       555,
   23.1813,       556,
   23.2058,       541,
   23.2303,       539,
   23.2549,       570,
   23.2794,       564,
   23.3039,       564,
   23.3285,       565,
    23.353,       549,
   23.3776,       568,
   23.4021,       551,
   23.4266,       543,
   23.4512,       581,
   23.4757,       563,
   23.5002,       557,
   23.5248,       546,
   23.5493,       558,
   23.5738,       582,
   23.5984,       559,
   23.6229,       517,
   23.6475,       537,
    23.672,       564,
   23.6965,       535,
   23.7211,       530,
   23.7456,       563,
   23.7701,       512,
   23.7947,       524,
   23.8192,       569,
   23.8437,       581,
   23.8683,       509,
   23.8928,       529,
   23.9173,       542,
   23.9419,       574,
   23.9664,       520,
    23.991,       569,
   24.0155,       550,
     24.04,       568,
   24.0646,       541,
   24.0891,       562,
   24.1136,       544,
   24.1382,       566,
   24.1627,       542,
   24.1872,       520,
   24.2118,       558,
   24.2363,       557,
   24.2609,       611,
   24.2854,       579,
   24.3099,       609,
   24.3345,       520,
    24.359,       589,
   24.3835,       618,
   24.4081,       609,
   24.4326,       565,
   24.4571,       560,
   24.4817,       593,
   24.5062,       580,
   24.5308,       589,
   24.5553,       591,
   24.5798,       602,
   24.6044,       602,
   24.6289,       646,
   24.6534,       611,
    24.678,       637,
   24.7025,       656,
    24.727,       677,
   24.7516,       752,
   24.7761,       758,
   24.8006,       839,
   24.8252,       778,
   24.8497,       829,
   24.8743,       840,
   24.8988,       797,
   24.9233,       776,
   24.9479,       845,
   24.9724,       821,
   24.9969,       729,
   25.0215,       709,
    25.046,       739,
   25.0705,       709,
   25.0951,       699,
   25.1196,       684,
   25.1442,       695,
   25.1687,       681,
   25.1932,       651,
   25.2178,       649,
   25.2423,       590,
   25.2668,       577,
   25.2914,       631,
   25.3159,       598,
   25.3404,       621,
    25.365,       617,
   25.3895,       625,
   25.4141,       609,
   25.4386,       580,
   25.4631,       631,
   25.4877,       664,
   25.5122,       701,
   25.5367,       634,
   25.5613,       635,
   25.5858,       643,
   25.6103,       605,
   25.6349,       609,
   25.6594,       610,
   25.6839,       606,
   25.7085,       609,
    25.733,       599,
   25.7576,       633,
   25.7821,       573,
   25.8066,       604,
   25.8312,       573,
   25.8557,       583,
   25.8802,       593,
   25.9048,       596,
   25.9293,       567,
   25.9538,       575,
   25.9784,       570,
   26.0029,       571,
   26.0275,       570,
    26.052,       606,
   26.0765,       610,
   26.1011,       577,
   26.1256,       589,
   26.1501,       566,
   26.1747,       595,
   26.1992,       553,
   26.2237,       606,
   26.2483,       541,
   26.2728,       596,
   26.2974,       588,
   26.3219,       579,
   26.3464,       616,
    26.371,       546,
   26.3955,       564,
     26.42,       616,
   26.4446,       586,
   26.4691,       621,
   26.4936,       605,
   26.5182,       637,
   26.5427,       598,
   26.5673,       599,
   26.5918,       589,
   26.6163,       646,
   26.6409,       622,
   26.6654,       638,
   26.6899,       669,
   26.7145,       638,
    26.739,       651,
   26.7635,       609,
   26.7881,       616,
   26.8126,       678,
   26.8371,       692,
   26.8617,       685,
   26.8862,       629,
   26.9108,       635,
   26.9353,       632,
   26.9598,       668,
   26.9844,       704,
   27.0089,       687,
   27.0334,       701,
    27.058,       619,
   27.0825,       633,
    27.107,       637,
   27.1316,       629,
   27.1561,       611,
   27.1807,       609,
   27.2052,       551,
   27.2297,       597,
   27.2543,       599,
   27.2788,       608,
   27.3033,       619,
   27.3279,       555,
   27.3524,       554,
   27.3769,       578,
   27.4015,       564,
    27.426,       583,
   27.4506,       582,
   27.4751,       609,
   27.4996,       552,
   27.5242,       580,
   27.5487,       603,
   27.5732,       569,
   27.5978,       558,
   27.6223,       572,
   27.6468,       607,
   27.6714,       655,
   27.6959,       608,
   27.7204,       596,
    27.745,       651,
   27.7695,       605,
   27.7941,       629,
   27.8186,       680,
   27.8431,       629,
   27.8677,       626,
   27.8922,       638,
   27.9167,       599,
   27.9413,       624,
   27.9658,       561,
   27.9903,       588,
   28.0149,       625,
   28.0394,       574,
    28.064,       607,
   28.0885,       595,
    28.113,       582,
   28.1376,       560,
   28.1621,       560,
   28.1866,       587,
   28.2112,       618,
   28.2357,       572,
   28.2602,       588,
   28.2848,       580,
   28.3093,       610,
   28.3339,       629,
   28.3584,       584,
   28.3829,       575,
   28.4075,       562,
    28.432,       641,
   28.4565,       588,
   28.4811,       646,
   28.5056,       627,
   28.5301,       569,
   28.5547,       589,
   28.5792,       580,
   28.6037,       611,
   28.6283,       652,
   28.6528,       646,
   28.6774,       633,
   28.7019,       630,
   28.7264,       583,
    28.751,       625,
   28.7755,       569,
      28.8,       617,
   28.8246,       607,
   28.8491,       615,
   28.8736,       607,
   28.8982,       610,
   28.9227,       612,
   28.9473,       587,
   28.9718,       597,
   28.9963,       572,
   29.0209,       567,
   29.0454,       581,
   29.0699,       577,
   29.0945,       581,
    29.119,       578,
   29.1435,       590,
   29.1681,       506,
   29.1926,       560,
   29.2172,       587,
   29.2417,       572,
   29.2662,       578,
   29.2908,       606,
   29.3153,       589,
   29.3398,       570,
   29.3644,       593,
   29.3889,       519,
   29.4134,       576,
    29.438,       566,
   29.4625,       576,
    29.487,       560,
   29.5116,       607,
   29.5361,       563,
   29.5607,       545,
   29.5852,       546,
   29.6097,       587,
   29.6343,       585,
   29.6588,       620,
   29.6833,       610,
   29.7079,       584,
   29.7324,       555,
   29.7569,       569,
   29.7815,       543,
    29.806,       619,
   29.8306,       585,
   29.8551,       544,
   29.8796,       571,
   29.9042,       626,
   29.9287,       599,
   29.9532,       619,
   29.9778,       568,
   30.0023,       557,
   30.0268,       638,
   30.0514,       620,
   30.0759,       637,
   30.1005,       594,
    30.125,       616,
   30.1495,       608,
   30.1741,       588,
   30.1986,       587,
   30.2231,       666,
   30.2477,       619,
   30.2722,       590,
   30.2967,       602,
   30.3213,       595,
   30.3458,       598,
   30.3703,       566,
   30.3949,       590,
   30.4194,       563,
    30.444,       581,
   30.4685,       584,
    30.493,       616,
   30.5176,       577,
   30.5421,       589,
   30.5666,       574,
   30.5912,       587,
   30.6157,       604,
   30.6402,       602,
   30.6648,       601,
   30.6893,       573,
   30.7139,       589,
   30.7384,       585,
   30.7629,       587,
   30.7875,       547,
    30.812,       550,
   30.8365,       561,
   30.8611,       558,
   30.8856,       528,
   30.9101,       600,
   30.9347,       587,
   30.9592,       583,
   30.9838,       540,
   31.0083,       582,
   31.0328,       568,
   31.0574,       537,
   31.0819,       541,
   31.1064,       575,
    31.131,       580,
   31.1555,       567,
     31.18,       540,
   31.2046,       557,
   31.2291,       590,
   31.2536,       584,
   31.2782,       604,
   31.3027,       589,
   31.3273,       592,
   31.3518,       617,
   31.3763,       624,
   31.4009,       584,
   31.4254,       594,
   31.4499,       578,
   31.4745,       551,
    31.499,       634,
   31.5235,       592,
   31.5481,       593,
   31.5726,       584,
   31.5972,       585,
   31.6217,       619,
   31.6462,       591,
   31.6708,       574,
   31.6953,       605,
   31.7198,       584,
   31.7444,       591,
   31.7689,       569,
   31.7934,       579,
    31.818,       628,
   31.8425,       575,
   31.8671,       654,
   31.8916,       606,
   31.9161,       612,
   31.9407,       676,
   31.9652,       672,
   31.9897,       631,
   32.0143,       655,
   32.0388,       608,
   32.0633,       610,
   32.0879,       645,
   32.1124,       607,
   32.1369,       638,
   32.1615,       569,
    32.186,       588,
   32.2106,       556,
   32.2351,       562,
   32.2596,       558,
   32.2842,       563,
   32.3087,       583,
   32.3332,       572,
   32.3578,       520,
   32.3823,       545,
   32.4068,       509,
   32.4314,       507,
   32.4559,       516,
   32.4805,       501,
    32.505,       547,
   32.5295,       507,
   32.5541,       544,
   32.5786,       499,
   32.6031,       551,
   32.6277,       507,
   32.6522,       505,
   32.6767,       523,
   32.7013,       498,
   32.7258,       507,
   32.7504,       538,
   32.7749,       516,
   32.7994,       526,
    32.824,       545,
   32.8485,       517,
    32.873,       514,
   32.8976,       553,
   32.9221,       491,
   32.9466,       482,
   32.9712,       494,
   32.9957,       524,
   33.0203,       512,
   33.0448,       543,
   33.0693,       486,
   33.0939,       503,
   33.1184,       538,
   33.1429,       526,
   33.1675,       535,
    33.192,       575,
   33.2165,       511,
   33.2411,       538,
   33.2656,       539,
   33.2901,       503,
   33.3147,       561,
   33.3392,       510,
   33.3638,       522,
   33.3883,       512,
   33.4128,       500,
   33.4374,       562,
   33.4619,       464,
   33.4864,       533,
    33.511,       492,
   33.5355,       523,
     33.56,       498,
   33.5846,       504,
   33.6091,       486,
   33.6337,       507,
   33.6582,       477,
   33.6827,       471,
   33.7073,       483,
   33.7318,       501,
   33.7563,       507,
   33.7809,       515,
   33.8054,       477,
   33.8299,       478,
   33.8545,       514,
    33.879,       491,
   33.9036,       470,
   33.9281,       504,
   33.9526,       466,
   33.9772,       502,
   34.0017,       492,
   34.0262,       507,
   34.0508,       467,
   34.0753,       511,
   34.0998,       470,
   34.1244,       491,
   34.1489,       510,
   34.1734,       510,
    34.198,       490,
   34.2225,       491,
   34.2471,       505,
   34.2716,       481,
   34.2961,       480,
   34.3207,       484,
   34.3452,       491,
   34.3697,       472,
   34.3943,       475,
   34.4188,       490,
   34.4433,       470,
   34.4679,       488,
   34.4924,       491,
    34.517,       478,
   34.5415,       520,
    34.566,       492,
   34.5906,       460,
   34.6151,       446,
   34.6396,       482,
   34.6642,       489,
   34.6887,       510,
   34.7132,       506,
   34.7378,       496,
   34.7623,       460,
   34.7869,       514,
   34.8114,       525,
   34.8359,       495,
   34.8605,       471,
    34.885,       513,
   34.9095,       516,
   34.9341,       484,
   34.9586,       489,
   34.9831,       500,
   35.0077,       491,
   35.0322,       470,
   35.0567,       481,
   35.0813,       503,
   35.1058,       470,
   35.1304,       479,
   35.1549,       483,
   35.1794,       494,
    35.204,       493,
   35.2285,       494,
    35.253,       436,
   35.2776,       470,
   35.3021,       474,
   35.3266,       473,
   35.3512,       494,
   35.3757,       495,
   35.4003,       466,
   35.4248,       465,
   35.4493,       472,
   35.4739,       447,
   35.4984,       475,
   35.5229,       470,
   35.5475,       464,
    35.572,       492,
   35.5965,       470,
   35.6211,       516,
   35.6456,       515,
   35.6702,       493,
   35.6947,       492,
   35.7192,       496,
   35.7438,       531,
   35.7683,       471,
   35.7928,       528,
   35.8174,       512,
   35.8419,       492,
   35.8664,       510,
    35.891,       539,
   35.9155,       473,
     35.94,       483,
   35.9646,       542,
   35.9891,       524,
   36.0137,       506,
   36.0382,       524,
   36.0627,       493,
   36.0873,       495,
   36.1118,       493,
   36.1363,       538,
   36.1609,       490,
   36.1854,       459,
   36.2099,       482,
   36.2345,       489,
    36.259,       497,
   36.2836,       485,
   36.3081,       481,
   36.3326,       504,
   36.3572,       514,
   36.3817,       462,
   36.4062,       490,
   36.4308,       514,
   36.4553,       456,
   36.4798,       441,
   36.5044,       465,
   36.5289,       413,
   36.5535,       441,
    36.578,       445,
   36.6025,       463,
   36.6271,       457,
   36.6516,       458,
   36.6761,       394,
   36.7007,       410,
   36.7252,       419,
   36.7497,       446,
   36.7743,       366,
   36.7988,       409,
   36.8233,       424,
   36.8479,       400,
   36.8724,       405,
    36.897,       356,
   36.9215,       448,
    36.946,       402,
   36.9706,       420,
   36.9951,       407,
   37.0196,       424,
   37.0442,       423,
   37.0687,       440,
   37.0932,       433,
   37.1178,       402,
   37.1423,       410,
   37.1669,       407,
   37.1914,       407,
   37.2159,       440,
   37.2405,       412,
    37.265,       439,
   37.2895,       408,
   37.3141,       436,
   37.3386,       433,
   37.3631,       423,
   37.3877,       438,
   37.4122,       417,
   37.4368,       462,
   37.4613,       396,
   37.4858,       456,
   37.5104,       429,
   37.5349,       414,
   37.5594,       452,
    37.584,       377,
   37.6085,       387,
    37.633,       405,
   37.6576,       406,
   37.6821,       403,
   37.7066,       382,
   37.7312,       399,
   37.7557,       385,
   37.7803,       368,
   37.8048,       406,
   37.8293,       402,
   37.8539,       396,
   37.8784,       375,
   37.9029,       388,
   37.9275,       382,
    37.952,       383,
   37.9765,       336,
   38.0011,       345,
   38.0256,       402,
   38.0502,       374,
   38.0747,       384,
   38.0992,       376,
   38.1238,       363,
   38.1483,       381,
   38.1728,       362,
   38.1974,       381,
   38.2219,       384,
   38.2464,       358,
    38.271,       370,
   38.2955,       423,
   38.3201,       373,
   38.3446,       402,
   38.3691,       338,
   38.3937,       368,
   38.4182,       415,
   38.4427,       382,
   38.4673,       364,
   38.4918,       374,
   38.5163,       389,
   38.5409,       415,
   38.5654,       372,
   38.5899,       399,
   38.6145,       337,
    38.639,       339,
   38.6636,       389,
   38.6881,       411,
   38.7126,       401,
   38.7372,       377,
   38.7617,       353,
   38.7862,       376,
   38.8108,       370,
   38.8353,       381,
   38.8598,       386,
   38.8844,       392,
   38.9089,       368,
   38.9335,       366,
    38.958,       402,
   38.9825,       378,
   39.0071,       382,
   39.0316,       383,
   39.0561,       359,
   39.0807,       371,
   39.1052,       402,
   39.1297,       379,
   39.1543,       348,
   39.1788,       396,
   39.2034,       441,
   39.2279,       363,
   39.2524,       404,
    39.277,       427,
   39.3015,       376,
    39.326,       377,
   39.3506,       407,
   39.3751,       399,
   39.3996,       389,
   39.4242,       442,
   39.4487,       455,
   39.4732,       418,
   39.4978,       408,
   39.5223,       406,
   39.5469,       442,
   39.5714,       424,
   39.5959,       396,
   39.6205,       406,
    39.645,       399,
   39.6695,       460,
   39.6941,       426,
   39.7186,       382,
   39.7431,       411,
   39.7677,       446,
   39.7922,       401,
   39.8168,       396,
   39.8413,       408,
   39.8658,       462,
   39.8904,       427,
   39.9149,       415,
   39.9394,       399,
    39.964,       431,
   39.9885,       404,
