;RAW4.00
[RawHeader]
Date=01/20/2022
EstimatedTotalTime=1727.11
FurtherDQLReading=0
HardwareIndicator=65519
MeasuredTotalTime=1727.11
MeasurementFlag=1
NumberOfMeasuredRanges=1
NumberOfRanges=1
Time=10:58:29

[VarInfo]
Type=USER
Flags=0
Value=Lab Manager

[VarInfo]
Type=SAMPLEID
Flags=0
Value=

[VarInfo]
Type=COMMENT
Flags=0
Value=

[VarInfo]
Type=UTF
Flags=0
Value=

[VarInfo]
Type=CREATOR
Flags=0
Value=BrmlToV4Converter

[VarInfo]
Type=CREATOR_VERSION
Flags=0
Value=7.3.1.0

[HardwareConfiguration]
AbsorptionFactor=9999
ActivateAbsorber=0
Alpha1=0.7093
Alpha2=0.71359
AlphaAverage=0.71073
AlphaRatio=0.5
Analyzer=0
Anode=Mo
AntiScatteringSlit=18
BeamOpticsFlags=0
Beta=0.63229
BetaRelativeIntensity=0
DeactivateAbsorber=0
DetectorSlit=9999
DivergenceSlit=0.2
GoniometerControl=0
GoniometerDiameter=560
GoniometerModel=512
GoniometerStage=7
Monochromator=0
NearSampleSlit=9999
PrimarySollerSlit=2.5
SampleChanger=0
SecondSollerSlit=9999
SynchronousAxis=0
ThinFilmAttachment=9999
WaveUnit=A

[RangeHeader]
ActuallyUsedLambda=0.71073
AdditionalDetectorMask=257
DataRecordLength=4
DelayTime=0
DisplayPlaneNumber=0
EstimatedScanTime=1727
ExtraParametersMask=0
GeneratorCurrent=40
GeneratorVoltage=50
Increment=0.0204468
Increment3=0
NumberOfCompletedData=1566
NumberOfCounts=1
NumberOfDetectors=0
NumberOfDrives=2
NumberOfEncoderDrives=0
NumberOfMeasuredData=1566
NumberOfVaryingParameters=0
RangeStartTime=0
RotationSpeed=60
ScanMode=1
ScanType=Locked Coupled
SimulatedMeasConditions=0
SlitChangerIn=0
SmootingWidth=0
Start=8
Steps=1566
SynchronousRotation=0
Time=192

[VarInfo]
Type=PSD_DISCRIM
Flags=0
Value=0.488;0.518

[PSD]
ActualTwoTheta=9999
FirstUsedChannel=0
FixedPSD=0
PSDOpening=2.94433
PSDType=5

[Drive]
DriveFlags=1
DriveName=2Theta
DriveNumber=2
DriveOffset=0
OffsetIndex=0
OscillationAmplitude=0
OscillationSpeed=0
StartPosition=8

[Drive]
DriveFlags=1
DriveName=Theta
DriveNumber=1
DriveOffset=0
OffsetIndex=0
OscillationAmplitude=0
OscillationSpeed=0
StartPosition=4

[Data]
     Angle,       PSD,
         8,       478,
   8.02045,       451,
   8.04089,       452,
   8.06134,       458,
   8.08179,       474,
   8.10223,       481,
   8.12268,       457,
   8.14313,       471,
   8.16357,       466,
   8.18402,       467,
   8.20447,       452,
   8.22491,       453,
   8.24536,       485,
   8.26581,       440,
   8.28625,       427,
    8.3067,       424,
   8.32715,       432,
    8.3476,       427,
   8.36804,       445,
   8.38849,       388,
   8.40894,       410,
   8.42938,       431,
   8.44983,       398,
   8.47028,       427,
   8.49072,       438,
   8.51117,       396,
   8.53162,       415,
   8.55206,       418,
   8.57251,       411,
   8.59296,       415,
    8.6134,       424,
   8.63385,       420,
    8.6543,       375,
   8.67474,       371,
   8.69519,       440,
   8.71564,       403,
   8.73608,       408,
   8.75653,       390,
   8.77698,       428,
   8.79742,       385,
   8.81787,       422,
   8.83832,       395,
   8.85876,       369,
   8.87921,       392,
   8.89966,       409,
    8.9201,       402,
   8.94055,       369,
     8.961,       374,
   8.98144,       379,
   9.00189,       390,
   9.02234,       362,
   9.04279,       395,
   9.06323,       393,
   9.08368,       392,
   9.10413,       353,
   9.12457,       358,
   9.14502,       380,
   9.16547,       378,
   9.18591,       417,
   9.20636,       398,
   9.22681,       374,
   9.24725,       386,
    9.2677,       391,
   9.28815,       389,
   9.30859,       352,
   9.32904,       380,
   9.34949,       390,
   9.36993,       408,
   9.39038,       411,
   9.41083,       403,
   9.43127,       396,
   9.45172,       388,
   9.47217,       458,
   9.49261,       401,
   9.51306,       393,
   9.53351,       404,
   9.55395,       446,
    9.5744,       455,
   9.59485,       473,
   9.61529,       496,
   9.63574,       507,
   9.65619,       645,
   9.67663,       771,
   9.69708,       825,
   9.71753,       958,
   9.73798,      1064,
   9.75842,      1053,
   9.77887,       951,
   9.79932,       852,
   9.81976,       802,
   9.84021,       675,
   9.86066,       566,
    9.8811,       516,
   9.90155,       515,
     9.922,       435,
   9.94244,       403,
   9.96289,       433,
   9.98334,       392,
   10.0038,       409,
   10.0242,       429,
   10.0447,       420,
   10.0651,       425,
   10.0856,       428,
    10.106,       431,
   10.1265,       393,
   10.1469,       380,
   10.1674,       355,
   10.1878,       387,
   10.2083,       431,
   10.2287,       367,
   10.2491,       410,
   10.2696,       432,
     10.29,       400,
   10.3105,       396,
   10.3309,       391,
   10.3514,       394,
   10.3718,       413,
   10.3923,       396,
   10.4127,       404,
   10.4332,       397,
   10.4536,       386,
   10.4741,       435,
   10.4945,       422,
    10.515,       462,
   10.5354,       462,
   10.5558,       535,
   10.5763,       674,
   10.5967,       794,
   10.6172,       983,
   10.6376,      1356,
   10.6581,      1643,
   10.6785,      1798,
    10.699,      1750,
   10.7194,      1704,
   10.7399,      1436,
   10.7603,      1145,
   10.7808,       925,
   10.8012,       735,
   10.8217,       584,
   10.8421,       483,
   10.8625,       448,
    10.883,       441,
   10.9034,       408,
   10.9239,       423,
   10.9443,       449,
   10.9648,       422,
   10.9852,       379,
   11.0057,       415,
   11.0261,       443,
   11.0466,       464,
    11.067,       453,
   11.0875,       484,
   11.1079,       477,
   11.1284,       485,
   11.1488,       503,
   11.1692,       525,
   11.1897,       468,
   11.2101,       530,
   11.2306,       575,
    11.251,       565,
   11.2715,       583,
   11.2919,       673,
   11.3124,       754,
   11.3328,       849,
   11.3533,       942,
   11.3737,      1080,
   11.3942,      1349,
   11.4146,      1643,
   11.4351,      1958,
   11.4555,      2374,
    11.476,      2650,
   11.4964,      2901,
   11.5168,      3022,
   11.5373,      2954,
   11.5577,      2863,
   11.5782,      2530,
   11.5986,      2226,
   11.6191,      1946,
   11.6395,      1514,
     11.66,      1270,
   11.6804,      1109,
   11.7009,       925,
   11.7213,       790,
   11.7418,       664,
   11.7622,       593,
   11.7827,       580,
   11.8031,       591,
   11.8235,       570,
    11.844,       534,
   11.8644,       519,
   11.8849,       550,
   11.9053,       560,
   11.9258,       530,
   11.9462,       503,
   11.9667,       552,
   11.9871,       545,
   12.0076,       558,
    12.028,       659,
   12.0485,       673,
   12.0689,       666,
   12.0894,       602,
   12.1098,       666,
   12.1302,       587,
   12.1507,       632,
   12.1711,       602,
   12.1916,       669,
    12.212,       733,
   12.2325,       711,
   12.2529,       776,
   12.2734,       924,
   12.2938,      1035,
   12.3143,      1151,
   12.3347,      1393,
   12.3552,      1666,
   12.3756,      2033,
   12.3961,      2410,
   12.4165,      2909,
   12.4369,      3395,
   12.4574,      3956,
   12.4778,      4238,
   12.4983,      4358,
   12.5187,      4586,
   12.5392,      4312,
   12.5596,      3917,
   12.5801,      3400,
   12.6005,      3079,
    12.621,      2524,
   12.6414,      2196,
   12.6619,      1815,
   12.6823,      1498,
   12.7028,      1302,
   12.7232,      1130,
   12.7437,       957,
   12.7641,       855,
   12.7845,       761,
    12.805,       703,
   12.8254,       653,
   12.8459,       600,
   12.8663,       575,
   12.8868,       578,
   12.9072,       591,
   12.9277,       514,
   12.9481,       548,
   12.9686,       562,
    12.989,       551,
   13.0095,       546,
   13.0299,       555,
   13.0504,       537,
   13.0708,       523,
   13.0912,       488,
   13.1117,       586,
   13.1321,       603,
   13.1526,       551,
    13.173,       596,
   13.1935,       609,
   13.2139,       670,
   13.2344,       617,
   13.2548,       672,
   13.2753,       719,
   13.2957,       736,
   13.3162,       755,
   13.3366,       838,
   13.3571,       985,
   13.3775,      1098,
   13.3979,      1405,
   13.4184,      1921,
   13.4388,      2628,
   13.4593,      4196,
   13.4797,      6378,
   13.5002,     10104,
   13.5206,     13224,
   13.5411,     14171,
   13.5615,     14054,
    13.582,     13163,
   13.6024,     11704,
   13.6229,      9488,
   13.6433,      7563,
   13.6638,      5590,
   13.6842,      3534,
   13.7046,      2324,
   13.7251,      1484,
   13.7455,      1074,
    13.766,       850,
   13.7864,       778,
   13.8069,       732,
   13.8273,       716,
   13.8478,       695,
   13.8682,       675,
   13.8887,       667,
   13.9091,       634,
   13.9296,       609,
     13.95,       581,
   13.9705,       604,
   13.9909,       534,
   14.0113,       557,
   14.0318,       556,
   14.0522,       524,
   14.0727,       528,
   14.0931,       477,
   14.1136,       472,
    14.134,       480,
   14.1545,       490,
   14.1749,       458,
   14.1954,       460,
   14.2158,       444,
   14.2363,       455,
   14.2567,       444,
   14.2772,       448,
   14.2976,       460,
   14.3181,       490,
   14.3385,       495,
   14.3589,       533,
   14.3794,       588,
   14.3998,       657,
   14.4203,       781,
   14.4407,       843,
   14.4612,       890,
   14.4816,       951,
   14.5021,      1131,
   14.5225,      1487,
    14.543,      2200,
   14.5634,      2952,
   14.5839,      3404,
   14.6043,      2991,
   14.6248,      2047,
   14.6452,      2040,
   14.6656,      2169,
   14.6861,      1887,
   14.7065,      1353,
    14.727,       877,
   14.7474,       823,
   14.7679,       788,
   14.7883,       781,
   14.8088,       784,
   14.8292,       873,
   14.8497,       975,
   14.8701,      1067,
   14.8906,      1260,
    14.911,      1503,
   14.9315,      1751,
   14.9519,      2097,
   14.9723,      2442,
   14.9928,      2946,
   15.0132,      3223,
   15.0337,      3625,
   15.0541,      3723,
   15.0746,      3709,
    15.095,      3731,
   15.1155,      3492,
   15.1359,      3120,
   15.1564,      2867,
   15.1768,      2506,
   15.1973,      2109,
   15.2177,      1845,
   15.2382,      1583,
   15.2586,      1328,
    15.279,      1099,
   15.2995,       939,
   15.3199,       905,
   15.3404,       770,
   15.3608,       756,
   15.3813,       701,
   15.4017,       652,
   15.4222,       602,
   15.4426,       588,
   15.4631,       565,
   15.4835,       528,
    15.504,       505,
   15.5244,       504,
   15.5449,       509,
   15.5653,       468,
   15.5858,       442,
   15.6062,       410,
   15.6266,       398,
   15.6471,       389,
   15.6675,       414,
    15.688,       390,
   15.7084,       392,
   15.7289,       372,
   15.7493,       389,
   15.7698,       408,
   15.7902,       380,
   15.8107,       386,
   15.8311,       384,
   15.8516,       353,
    15.872,       374,
   15.8925,       383,
   15.9129,       355,
   15.9333,       372,
   15.9538,       362,
   15.9742,       357,
   15.9947,       382,
   16.0151,       388,
   16.0356,       387,
    16.056,       438,
   16.0765,       356,
   16.0969,       360,
   16.1174,       370,
   16.1378,       394,
   16.1583,       348,
   16.1787,       361,
   16.1992,       412,
   16.2196,       407,
     16.24,       401,
   16.2605,       345,
   16.2809,       377,
   16.3014,       367,
   16.3218,       404,
   16.3423,       467,
   16.3627,       542,
   16.3832,       656,
   16.4036,       970,
   16.4241,      1363,
   16.4445,      1759,
    16.465,      1967,
   16.4854,      1890,
   16.5059,      1751,
   16.5263,      1628,
   16.5467,      1574,
   16.5672,      1297,
   16.5876,      1150,
   16.6081,       951,
   16.6285,       705,
    16.649,       562,
   16.6694,       469,
   16.6899,       402,
   16.7103,       375,
   16.7308,       375,
   16.7512,       355,
   16.7717,       362,
   16.7921,       364,
   16.8126,       362,
    16.833,       363,
   16.8535,       349,
   16.8739,       337,
   16.8943,       358,
   16.9148,       344,
   16.9352,       346,
   16.9557,       366,
   16.9761,       346,
   16.9966,       370,
    17.017,       376,
   17.0375,       353,
   17.0579,       343,
   17.0784,       364,
   17.0988,       324,
   17.1193,       385,
   17.1397,       341,
   17.1602,       345,
   17.1806,       379,
    17.201,       342,
   17.2215,       370,
   17.2419,       355,
   17.2624,       372,
   17.2828,       345,
   17.3033,       391,
   17.3237,       401,
   17.3442,       390,
   17.3646,       402,
   17.3851,       420,
   17.4055,       416,
    17.426,       429,
   17.4464,       431,
   17.4669,       441,
   17.4873,       457,
   17.5077,       503,
   17.5282,       524,
   17.5486,       518,
   17.5691,       504,
   17.5895,       521,
     17.61,       546,
   17.6304,       607,
   17.6509,       631,
   17.6713,       598,
   17.6918,       668,
   17.7122,       643,
   17.7327,       758,
   17.7531,       716,
   17.7736,       714,
    17.794,       732,
   17.8144,       766,
   17.8349,       759,
   17.8553,       819,
   17.8758,       922,
   17.8962,      1090,
   17.9167,      1436,
   17.9371,      2014,
   17.9576,      2698,
    17.978,      2934,
   17.9985,      2741,
   18.0189,      2579,
   18.0394,      2352,
   18.0598,      2239,
   18.0803,      2064,
   18.1007,      1839,
   18.1211,      1551,
   18.1416,      1329,
    18.162,       967,
   18.1825,       887,
   18.2029,       693,
   18.2234,       649,
   18.2438,       594,
   18.2643,       558,
   18.2847,       570,
   18.3052,       492,
   18.3256,       515,
   18.3461,       573,
   18.3665,       545,
    18.387,       544,
   18.4074,       541,
   18.4279,       523,
   18.4483,       536,
   18.4687,       549,
   18.4892,       582,
   18.5096,       580,
   18.5301,       529,
   18.5505,       510,
    18.571,       542,
   18.5914,       528,
   18.6119,       518,
   18.6323,       500,
   18.6528,       525,
   18.6732,       470,
   18.6937,       513,
   18.7141,       491,
   18.7346,       492,
    18.755,       470,
   18.7754,       485,
   18.7959,       479,
   18.8163,       511,
   18.8368,       464,
   18.8572,       497,
   18.8777,       469,
   18.8981,       497,
   18.9186,       481,
    18.939,       524,
   18.9595,       489,
   18.9799,       538,
   19.0004,       552,
   19.0208,       495,
   19.0413,       536,
   19.0617,       460,
   19.0821,       502,
   19.1026,       588,
    19.123,       574,
   19.1435,       549,
   19.1639,       522,
   19.1844,       528,
   19.2048,       500,
   19.2253,       539,
   19.2457,       554,
   19.2662,       536,
   19.2866,       564,
   19.3071,       539,
   19.3275,       589,
    19.348,       587,
   19.3684,       680,
   19.3888,       649,
   19.4093,       733,
   19.4297,       772,
   19.4502,       799,
   19.4706,       805,
   19.4911,       870,
   19.5115,       899,
    19.532,      1001,
   19.5524,      1314,
   19.5729,      1785,
   19.5933,      2279,
   19.6138,      2424,
   19.6342,      2514,
   19.6547,      2235,
   19.6751,      1983,
   19.6956,      1884,
    19.716,      1951,
   19.7364,      1958,
   19.7569,      1873,
   19.7773,      1792,
   19.7978,      1700,
   19.8182,      1685,
   19.8387,      1773,
   19.8591,      1810,
   19.8796,      1988,
      19.9,      2029,
   19.9205,      2164,
   19.9409,      2175,
   19.9614,      2123,
   19.9818,      2026,
   20.0023,      1995,
   20.0227,      1737,
   20.0431,      1717,
   20.0636,      1495,
    20.084,      1360,
   20.1045,      1205,
   20.1249,      1050,
   20.1454,       923,
   20.1658,       875,
   20.1863,       797,
   20.2067,       688,
   20.2272,       674,
   20.2476,       647,
   20.2681,       560,
   20.2885,       523,
    20.309,       576,
   20.3294,       598,
   20.3498,       558,
   20.3703,       472,
   20.3907,       493,
   20.4112,       511,
   20.4316,       481,
   20.4521,       521,
   20.4725,       460,
    20.493,       519,
   20.5134,       526,
   20.5339,       552,
   20.5543,       635,
   20.5748,       800,
   20.5952,       949,
   20.6157,      1124,
   20.6361,      1170,
   20.6565,       981,
    20.677,       840,
   20.6974,       824,
   20.7179,       801,
   20.7383,       758,
   20.7588,       860,
   20.7792,       692,
   20.7997,       585,
   20.8201,       523,
   20.8406,       540,
    20.861,       465,
   20.8815,       441,
   20.9019,       453,
   20.9224,       455,
   20.9428,       428,
   20.9633,       469,
   20.9837,       402,
   21.0041,       401,
   21.0246,       487,
    21.045,       448,
   21.0655,       430,
   21.0859,       471,
   21.1064,       433,
   21.1268,       481,
   21.1473,       460,
   21.1677,       495,
   21.1882,       510,
   21.2086,       493,
   21.2291,       539,
   21.2495,       696,
     21.27,       821,
   21.2904,       975,
   21.3108,      1066,
   21.3313,      1171,
   21.3517,      1177,
   21.3722,      1172,
   21.3926,      1177,
   21.4131,      1344,
   21.4335,      1707,
    21.454,      2340,
   21.4744,      2680,
   21.4949,      2824,
   21.5153,      2644,
   21.5358,      2294,
   21.5562,      1904,
   21.5767,      1771,
   21.5971,      1790,
   21.6175,      1678,
    21.638,      1560,
   21.6584,      1364,
   21.6789,      1150,
   21.6993,       939,
   21.7198,       740,
   21.7402,       664,
   21.7607,       565,
   21.7811,       656,
   21.8016,       681,
    21.822,       833,
   21.8425,      1107,
   21.8629,      1470,
   21.8834,      2077,
   21.9038,      2612,
   21.9242,      2754,
   21.9447,      2624,
   21.9651,      2310,
   21.9856,      2064,
    22.006,      1978,
   22.0265,      1999,
   22.0469,      2009,
   22.0674,      1935,
   22.0878,      1900,
   22.1083,      1604,
   22.1287,      1527,
   22.1492,      1313,
   22.1696,      1284,
   22.1901,      1159,
   22.2105,      1171,
    22.231,      1090,
   22.2514,      1054,
   22.2718,      1002,
   22.2923,       993,
   22.3127,      1000,
   22.3332,      1044,
   22.3536,       931,
   22.3741,       931,
   22.3945,       990,
    22.415,       937,
   22.4354,      1004,
   22.4559,      1058,
   22.4763,      1187,
   22.4968,      1406,
   22.5172,      1467,
   22.5377,      1576,
   22.5581,      1720,
   22.5785,      1875,
    22.599,      1843,
   22.6194,      1895,
   22.6399,      1818,
   22.6603,      1762,
   22.6808,      1672,
   22.7012,      1469,
   22.7217,      1451,
   22.7421,      1351,
   22.7626,      1236,
    22.783,      1083,
   22.8035,      1022,
   22.8239,       890,
   22.8444,       852,
   22.8648,       789,
   22.8852,       697,
   22.9057,       667,
   22.9261,       654,
   22.9466,       590,
    22.967,       564,
   22.9875,       597,
   23.0079,       571,
   23.0284,       607,
   23.0488,       551,
   23.0693,       540,
   23.0897,       514,
   23.1102,       532,
   23.1306,       529,
   23.1511,       531,
   23.1715,       521,
   23.1919,       502,
   23.2124,       496,
   23.2328,       456,
   23.2533,       426,
   23.2737,       459,
   23.2942,       418,
   23.3146,       453,
   23.3351,       466,
   23.3555,       444,
    23.376,       435,
   23.3964,       410,
   23.4169,       449,
   23.4373,       431,
   23.4578,       463,
   23.4782,       473,
   23.4986,       439,
   23.5191,       481,
   23.5395,       485,
     23.56,       440,
   23.5804,       444,
   23.6009,       452,
   23.6213,       435,
   23.6418,       440,
   23.6622,       434,
   23.6827,       427,
   23.7031,       448,
   23.7236,       430,
    23.744,       466,
   23.7645,       438,
   23.7849,       452,
   23.8054,       402,
   23.8258,       435,
   23.8462,       406,
   23.8667,       399,
   23.8871,       446,
   23.9076,       435,
    23.928,       415,
   23.9485,       458,
   23.9689,       415,
   23.9894,       480,
   24.0098,       434,
   24.0303,       463,
   24.0507,       444,
   24.0712,       444,
   24.0916,       467,
   24.1121,       458,
   24.1325,       452,
   24.1529,       490,
   24.1734,       450,
   24.1938,       485,
   24.2143,       449,
   24.2347,       487,
   24.2552,       449,
   24.2756,       442,
   24.2961,       486,
   24.3165,       489,
    24.337,       482,
   24.3574,       463,
   24.3779,       477,
   24.3983,       488,
   24.4188,       469,
   24.4392,       474,
   24.4596,       491,
   24.4801,       510,
   24.5005,       491,
    24.521,       481,
   24.5414,       460,
   24.5619,       519,
   24.5823,       494,
   24.6028,       503,
   24.6232,       508,
   24.6437,       550,
   24.6641,       494,
   24.6846,       512,
    24.705,       500,
   24.7255,       527,
   24.7459,       600,
   24.7663,       578,
   24.7868,       586,
   24.8072,       611,
   24.8277,       622,
   24.8481,       645,
   24.8686,       686,
    24.889,       786,
   24.9095,       828,
   24.9299,       844,
   24.9504,       911,
   24.9708,       914,
   24.9913,       905,
   25.0117,       954,
   25.0322,      1045,
   25.0526,       960,
   25.0731,      1004,
   25.0935,       940,
   25.1139,       890,
   25.1344,       895,
   25.1548,       851,
   25.1753,       831,
   25.1957,       759,
   25.2162,       817,
   25.2366,       838,
   25.2571,       901,
   25.2775,       988,
    25.298,      1195,
   25.3184,      1042,
   25.3389,       975,
   25.3593,       956,
   25.3798,       776,
   25.4002,       818,
   25.4206,       773,
   25.4411,       821,
   25.4615,       851,
    25.482,       810,
   25.5024,       716,
   25.5229,       754,
   25.5433,       694,
   25.5638,       708,
   25.5842,       733,
   25.6047,       882,
   25.6251,      1083,
   25.6456,      1326,
    25.666,      1348,
   25.6865,      1312,
   25.7069,      1267,
   25.7273,      1071,
   25.7478,       896,
   25.7682,       909,
   25.7887,       911,
   25.8091,       963,
   25.8296,       978,
     25.85,       998,
   25.8705,       836,
   25.8909,       809,
   25.9114,       761,
   25.9318,       662,
   25.9523,       631,
   25.9727,       619,
   25.9932,       551,
   26.0136,       539,
    26.034,       584,
   26.0545,       527,
   26.0749,       532,
   26.0954,       533,
   26.1158,       532,
   26.1363,       500,
   26.1567,       469,
   26.1772,       518,
   26.1976,       481,
   26.2181,       475,
   26.2385,       497,
    26.259,       487,
   26.2794,       502,
   26.2999,       455,
   26.3203,       505,
   26.3408,       462,
   26.3612,       507,
   26.3816,       464,
   26.4021,       509,
   26.4225,       500,
    26.443,       519,
   26.4634,       505,
   26.4839,       485,
   26.5043,       540,
   26.5248,       531,
   26.5452,       522,
   26.5657,       515,
   26.5861,       502,
   26.6066,       566,
    26.627,       572,
   26.6475,       594,
   26.6679,       566,
   26.6883,       575,
   26.7088,       531,
   26.7292,       576,
   26.7497,       568,
   26.7701,       588,
   26.7906,       600,
    26.811,       548,
   26.8315,       582,
   26.8519,       608,
   26.8724,       586,
   26.8928,       574,
   26.9133,       610,
   26.9337,       619,
   26.9542,       760,
   26.9746,       962,
    26.995,       978,
   27.0155,       989,
   27.0359,      1015,
   27.0564,       942,
   27.0768,       905,
   27.0973,       859,
   27.1177,       912,
   27.1382,       958,
   27.1586,       997,
   27.1791,       982,
   27.1995,       917,
     27.22,       842,
   27.2404,       806,
   27.2609,       846,
   27.2813,       868,
   27.3017,       918,
   27.3222,       850,
   27.3426,       802,
   27.3631,       734,
   27.3835,       642,
    27.404,       614,
   27.4244,       595,
   27.4449,       636,
   27.4653,       591,
   27.4858,       590,
   27.5062,       608,
   27.5267,       577,
   27.5471,       525,
   27.5676,       530,
    27.588,       478,
   27.6084,       490,
   27.6289,       485,
   27.6493,       415,
   27.6698,       494,
   27.6902,       489,
   27.7107,       490,
   27.7311,       536,
   27.7516,       530,
    27.772,       521,
   27.7925,       490,
   27.8129,       512,
   27.8334,       512,
   27.8538,       590,
   27.8743,       579,
   27.8947,       649,
   27.9152,       682,
   27.9356,       678,
    27.956,       779,
   27.9765,       768,
   27.9969,       728,
   28.0174,       690,
   28.0378,       693,
   28.0583,       621,
   28.0787,       624,
   28.0992,       618,
   28.1196,       639,
   28.1401,       659,
   28.1605,       631,
    28.181,       577,
   28.2014,       545,
   28.2219,       554,
   28.2423,       532,
   28.2627,       487,
   28.2832,       506,
   28.3036,       518,
   28.3241,       478,
   28.3445,       468,
    28.365,       473,
   28.3854,       437,
   28.4059,       460,
   28.4263,       475,
   28.4468,       462,
   28.4672,       487,
   28.4877,       490,
   28.5081,       489,
   28.5286,       505,
    28.549,       578,
   28.5694,       748,
   28.5899,       852,
   28.6103,       994,
   28.6308,       983,
   28.6512,       943,
   28.6717,       874,
   28.6921,       840,
   28.7126,       705,
    28.733,       647,
   28.7535,       644,
   28.7739,       745,
   28.7944,       768,
   28.8148,       760,
   28.8353,       709,
   28.8557,       659,
   28.8761,       586,
   28.8966,       577,
    28.917,       605,
   28.9375,       614,
   28.9579,       668,
   28.9784,       763,
   28.9988,       725,
   29.0193,       783,
   29.0397,       724,
   29.0602,       676,
   29.0806,       607,
   29.1011,       600,
   29.1215,       571,
    29.142,       639,
   29.1624,       682,
   29.1829,       631,
   29.2033,       711,
   29.2237,       651,
   29.2442,       686,
   29.2646,       542,
   29.2851,       582,
   29.3055,       531,
    29.326,       542,
   29.3464,       511,
   29.3669,       515,
   29.3873,       502,
   29.4078,       508,
   29.4282,       483,
   29.4487,       463,
   29.4691,       486,
   29.4896,       492,
     29.51,       450,
   29.5304,       510,
   29.5509,       462,
   29.5713,       451,
   29.5918,       463,
   29.6122,       465,
   29.6327,       514,
   29.6531,       495,
   29.6736,       487,
    29.694,       514,
   29.7145,       476,
   29.7349,       481,
   29.7554,       471,
   29.7758,       487,
   29.7963,       486,
   29.8167,       451,
   29.8371,       485,
   29.8576,       490,
    29.878,       487,
   29.8985,       458,
   29.9189,       482,
   29.9394,       473,
   29.9598,       519,
   29.9803,       469,
   30.0007,       521,
   30.0212,       508,
   30.0416,       503,
   30.0621,       527,
   30.0825,       511,
    30.103,       512,
   30.1234,       540,
   30.1438,       570,
   30.1643,       535,
   30.1847,       566,
   30.2052,       601,
   30.2256,       603,
   30.2461,       581,
   30.2665,       567,
    30.287,       594,
   30.3074,       572,
   30.3279,       571,
   30.3483,       616,
   30.3688,       634,
   30.3892,       624,
   30.4097,       647,
   30.4301,       655,
   30.4506,       675,
    30.471,       639,
   30.4914,       642,
   30.5119,       596,
   30.5323,       571,
   30.5528,       610,
   30.5732,       588,
   30.5937,       584,
   30.6141,       594,
   30.6346,       572,
    30.655,       547,
   30.6755,       555,
   30.6959,       526,
   30.7164,       511,
   30.7368,       517,
   30.7573,       548,
   30.7777,       564,
   30.7981,       661,
   30.8186,       684,
    30.839,       683,
   30.8595,       678,
   30.8799,       621,
   30.9004,       559,
   30.9208,       612,
   30.9413,       578,
   30.9617,       595,
   30.9822,       568,
   31.0026,       586,
   31.0231,       589,
   31.0435,       585,
    31.064,       573,
   31.0844,       542,
   31.1048,       535,
   31.1253,       573,
   31.1457,       511,
   31.1662,       523,
   31.1866,       508,
   31.2071,       521,
   31.2275,       520,
    31.248,       500,
   31.2684,       481,
   31.2889,       510,
   31.3093,       522,
   31.3298,       475,
   31.3502,       548,
   31.3707,       581,
   31.3911,       622,
   31.4115,       615,
    31.432,       597,
   31.4524,       588,
   31.4729,       572,
   31.4933,       572,
   31.5138,       612,
   31.5342,       609,
   31.5547,       573,
   31.5751,       610,
   31.5956,       635,
    31.616,       617,
   31.6365,       623,
   31.6569,       614,
   31.6774,       542,
   31.6978,       588,
   31.7183,       546,
   31.7387,       550,
   31.7591,       548,
   31.7796,       572,
      31.8,       637,
   31.8205,       703,
   31.8409,       769,
   31.8614,       849,
   31.8818,       778,
   31.9023,       718,
   31.9227,       735,
   31.9432,       683,
   31.9636,       684,
   31.9841,       666,
   32.0045,       708,
    32.025,       759,
   32.0454,       746,
   32.0658,       784,
   32.0863,       753,
   32.1067,       815,
   32.1272,       765,
   32.1476,       766,
   32.1681,       735,
   32.1885,       707,
    32.209,       699,
   32.2294,       650,
   32.2499,       613,
   32.2703,       674,
   32.2908,       624,
   32.3112,       602,
   32.3317,       608,
   32.3521,       566,
   32.3725,       600,
    32.393,       561,
   32.4134,       534,
   32.4339,       527,
   32.4543,       551,
   32.4748,       493,
   32.4952,       450,
   32.5157,       469,
   32.5361,       454,
   32.5566,       469,
    32.577,       462,
   32.5975,       486,
   32.6179,       442,
   32.6384,       510,
   32.6588,       450,
   32.6792,       479,
   32.6997,       465,
   32.7201,       445,
   32.7406,       508,
    32.761,       571,
   32.7815,       677,
   32.8019,       650,
   32.8224,       547,
   32.8428,       494,
   32.8633,       456,
   32.8837,       448,
   32.9042,       460,
   32.9246,       471,
   32.9451,       475,
   32.9655,       463,
   32.9859,       557,
   33.0064,       541,
   33.0268,       455,
   33.0473,       456,
   33.0677,       450,
   33.0882,       473,
   33.1086,       473,
   33.1291,       481,
   33.1495,       529,
     33.17,       517,
   33.1904,       492,
   33.2109,       445,
   33.2313,       457,
   33.2518,       432,
   33.2722,       428,
   33.2927,       472,
   33.3131,       436,
   33.3335,       475,
    33.354,       456,
   33.3744,       482,
   33.3949,       446,
   33.4153,       520,
   33.4358,       549,
   33.4562,       577,
   33.4767,       611,
   33.4971,       590,
   33.5176,       579,
    33.538,       537,
   33.5585,       472,
   33.5789,       495,
   33.5994,       431,
   33.6198,       487,
   33.6402,       491,
   33.6607,       501,
   33.6811,       520,
   33.7016,       486,
    33.722,       483,
   33.7425,       480,
   33.7629,       473,
   33.7834,       423,
   33.8038,       465,
   33.8243,       393,
   33.8447,       456,
   33.8652,       381,
   33.8856,       382,
   33.9061,       438,
   33.9265,       409,
   33.9469,       358,
   33.9674,       411,
   33.9878,       399,
   34.0083,       435,
   34.0287,       399,
   34.0492,       399,
   34.0696,       404,
   34.0901,       421,
   34.1105,       412,
    34.131,       398,
   34.1514,       394,
   34.1719,       400,
   34.1923,       417,
   34.2128,       415,
   34.2332,       418,
   34.2536,       397,
   34.2741,       413,
   34.2945,       442,
    34.315,       362,
   34.3354,       406,
   34.3559,       394,
   34.3763,       403,
   34.3968,       402,
   34.4172,       426,
   34.4377,       432,
   34.4581,       388,
   34.4786,       396,
    34.499,       396,
   34.5195,       409,
   34.5399,       383,
   34.5604,       399,
   34.5808,       390,
   34.6012,       394,
   34.6217,       414,
   34.6421,       420,
   34.6626,       425,
    34.683,       437,
   34.7035,       433,
   34.7239,       433,
   34.7444,       455,
   34.7648,       416,
   34.7853,       382,
   34.8057,       440,
   34.8262,       446,
   34.8466,       471,
   34.8671,       507,
   34.8875,       532,
   34.9079,       435,
   34.9284,       493,
   34.9488,       445,
   34.9693,       443,
   34.9897,       482,
   35.0102,       435,
   35.0306,       463,
   35.0511,       505,
   35.0715,       627,
    35.092,       639,
   35.1124,       666,
   35.1329,       607,
   35.1533,       561,
   35.1738,       498,
   35.1942,       447,
   35.2146,       448,
   35.2351,       446,
   35.2555,       522,
    35.276,       456,
   35.2964,       517,
   35.3169,       508,
   35.3373,       529,
   35.3578,       496,
   35.3782,       495,
   35.3987,       452,
   35.4191,       438,
   35.4396,       440,
     35.46,       441,
   35.4805,       400,
   35.5009,       455,
   35.5213,       406,
   35.5418,       464,
   35.5622,       455,
   35.5827,       421,
   35.6031,       434,
   35.6236,       446,
    35.644,       442,
   35.6645,       416,
   35.6849,       414,
   35.7054,       437,
   35.7258,       412,
   35.7463,       459,
   35.7667,       479,
   35.7872,       491,
   35.8076,       496,
   35.8281,       536,
   35.8485,       528,
   35.8689,       656,
   35.8894,       667,
   35.9098,       766,
   35.9303,       740,
   35.9507,       749,
   35.9712,       862,
   35.9916,       768,
   36.0121,       710,
   36.0325,       747,
    36.053,       701,
   36.0734,       682,
   36.0939,       626,
   36.1143,       603,
   36.1348,       690,
   36.1552,       665,
   36.1756,       694,
   36.1961,       658,
   36.2165,       689,
    36.237,       704,
   36.2574,       720,
   36.2779,       759,
   36.2983,       715,
   36.3188,       636,
   36.3392,       657,
   36.3597,       576,
   36.3801,       509,
   36.4006,       532,
    36.421,       528,
   36.4415,       529,
   36.4619,       519,
   36.4823,       538,
   36.5028,       531,
   36.5232,       524,
   36.5437,       581,
   36.5641,       524,
   36.5846,       540,
    36.605,       471,
   36.6255,       486,
   36.6459,       439,
   36.6664,       445,
   36.6868,       466,
   36.7073,       437,
   36.7277,       407,
   36.7482,       426,
   36.7686,       441,
    36.789,       418,
   36.8095,       435,
   36.8299,       420,
   36.8504,       440,
   36.8708,       436,
   36.8913,       436,
   36.9117,       444,
   36.9322,       431,
   36.9526,       408,
   36.9731,       416,
   36.9935,       408,
    37.014,       382,
   37.0344,       400,
   37.0549,       399,
   37.0753,       398,
   37.0957,       396,
   37.1162,       376,
   37.1366,       418,
   37.1571,       409,
   37.1775,       427,
    37.198,       427,
   37.2184,       428,
   37.2389,       409,
   37.2593,       417,
   37.2798,       429,
   37.3002,       411,
   37.3207,       415,
   37.3411,       454,
   37.3616,       464,
    37.382,       429,
   37.4025,       417,
   37.4229,       439,
   37.4433,       468,
   37.4638,       453,
   37.4842,       443,
   37.5047,       433,
   37.5251,       409,
   37.5456,       456,
    37.566,       424,
   37.5865,       446,
   37.6069,       397,
   37.6274,       396,
   37.6478,       418,
   37.6683,       411,
   37.6887,       455,
   37.7092,       428,
   37.7296,       416,
     37.75,       389,
   37.7705,       437,
   37.7909,       391,
   37.8114,       408,
   37.8318,       393,
   37.8523,       398,
   37.8727,       410,
   37.8932,       403,
   37.9136,       443,
   37.9341,       396,
   37.9545,       407,
    37.975,       364,
   37.9954,       402,
   38.0159,       400,
   38.0363,       394,
   38.0567,       396,
   38.0772,       382,
   38.0976,       385,
   38.1181,       393,
   38.1385,       391,
    38.159,       414,
   38.1794,       381,
   38.1999,       390,
   38.2203,       354,
   38.2408,       409,
   38.2612,       379,
   38.2817,       366,
   38.3021,       417,
   38.3226,       393,
    38.343,       405,
   38.3634,       414,
   38.3839,       337,
   38.4043,       368,
   38.4248,       396,
   38.4452,       407,
   38.4657,       398,
   38.4861,       405,
   38.5066,       383,
    38.527,       380,
   38.5475,       351,
   38.5679,       363,
   38.5884,       421,
   38.6088,       391,
   38.6293,       408,
   38.6497,       381,
   38.6702,       407,
   38.6906,       383,
    38.711,       382,
   38.7315,       390,
   38.7519,       378,
   38.7724,       369,
   38.7928,       376,
   38.8133,       373,
   38.8337,       382,
   38.8542,       397,
   38.8746,       374,
   38.8951,       379,
   38.9155,       371,
    38.936,       379,
   38.9564,       436,
   38.9769,       382,
   38.9973,       404,
   39.0177,       382,
   39.0382,       395,
   39.0586,       391,
   39.0791,       392,
   39.0995,       410,
     39.12,       409,
   39.1404,       442,
   39.1609,       444,
   39.1813,       441,
   39.2018,       419,
   39.2222,       448,
   39.2427,       425,
   39.2631,       418,
   39.2836,       405,
    39.304,       427,
   39.3244,       444,
   39.3449,       458,
   39.3653,       429,
   39.3858,       422,
   39.4062,       419,
   39.4267,       463,
   39.4471,       409,
   39.4676,       393,
    39.488,       385,
   39.5085,       404,
   39.5289,       413,
   39.5494,       419,
   39.5698,       422,
   39.5903,       455,
   39.6107,       427,
   39.6311,       448,
   39.6516,       443,
    39.672,       560,
   39.6925,       600,
   39.7129,       607,
   39.7334,       614,
   39.7538,       657,
   39.7743,       667,
   39.7947,       639,
   39.8152,       648,
   39.8356,       618,
   39.8561,       594,
   39.8765,       529,
    39.897,       500,
   39.9174,       517,
   39.9379,       518,
   39.9583,       538,
   39.9787,       579,
   39.9992,       510,
