;RAW4.00
[RawHeader]
Date=01/20/2022
EstimatedTotalTime=1727.17
FurtherDQLReading=0
HardwareIndicator=65519
MeasuredTotalTime=1727.17
MeasurementFlag=1
NumberOfMeasuredRanges=1
NumberOfRanges=1
Time=11:38:01

[VarInfo]
Type=USER
Flags=0
Value=Lab Manager

[VarInfo]
Type=SAMPLEID
Flags=0
Value=

[VarInfo]
Type=COMMENT
Flags=0
Value=

[VarInfo]
Type=UTF
Flags=0
Value=

[VarInfo]
Type=CREATOR
Flags=0
Value=BrmlToV4Converter

[VarInfo]
Type=CREATOR_VERSION
Flags=0
Value=7.3.1.0

[HardwareConfiguration]
AbsorptionFactor=9999
ActivateAbsorber=0
Alpha1=0.7093
Alpha2=0.71359
AlphaAverage=0.71073
AlphaRatio=0.5
Analyzer=0
Anode=Mo
AntiScatteringSlit=18
BeamOpticsFlags=0
Beta=0.63229
BetaRelativeIntensity=0
DeactivateAbsorber=0
DetectorSlit=9999
DivergenceSlit=0.2
GoniometerControl=0
GoniometerDiameter=560
GoniometerModel=512
GoniometerStage=7
Monochromator=0
NearSampleSlit=9999
PrimarySollerSlit=2.5
SampleChanger=0
SecondSollerSlit=9999
SynchronousAxis=0
ThinFilmAttachment=9999
WaveUnit=A

[RangeHeader]
ActuallyUsedLambda=0.71073
AdditionalDetectorMask=257
DataRecordLength=4
DelayTime=0
DisplayPlaneNumber=0
EstimatedScanTime=1727
ExtraParametersMask=0
GeneratorCurrent=40
GeneratorVoltage=50
Increment=0.0204468
Increment3=0
NumberOfCompletedData=1566
NumberOfCounts=1
NumberOfDetectors=0
NumberOfDrives=2
NumberOfEncoderDrives=0
NumberOfMeasuredData=1566
NumberOfVaryingParameters=0
RangeStartTime=0
RotationSpeed=60
ScanMode=1
ScanType=Locked Coupled
SimulatedMeasConditions=0
SlitChangerIn=0
SmootingWidth=0
Start=8
Steps=1566
SynchronousRotation=0
Time=192

[VarInfo]
Type=PSD_DISCRIM
Flags=0
Value=0.488;0.518

[PSD]
ActualTwoTheta=9999
FirstUsedChannel=0
FixedPSD=0
PSDOpening=2.94433
PSDType=5

[Drive]
DriveFlags=1
DriveName=2Theta
DriveNumber=2
DriveOffset=0
OffsetIndex=0
OscillationAmplitude=0
OscillationSpeed=0
StartPosition=8

[Drive]
DriveFlags=1
DriveName=Theta
DriveNumber=1
DriveOffset=0
OffsetIndex=0
OscillationAmplitude=0
OscillationSpeed=0
StartPosition=4

[Data]
     Angle,       PSD,
         8,       491,
   8.02045,       502,
   8.04089,       497,
   8.06134,       494,
   8.08179,       456,
   8.10223,       542,
   8.12268,       506,
   8.14313,       482,
   8.16357,       527,
   8.18402,       471,
   8.20447,       481,
   8.22491,       481,
   8.24536,       480,
   8.26581,       483,
   8.28625,       474,
    8.3067,       457,
   8.32715,       439,
    8.3476,       461,
   8.36804,       454,
   8.38849,       472,
   8.40894,       432,
   8.42938,       456,
   8.44983,       422,
   8.47028,       445,
   8.49072,       475,
   8.51117,       441,
   8.53162,       415,
   8.55206,       459,
   8.57251,       435,
   8.59296,       443,
    8.6134,       453,
   8.63385,       449,
    8.6543,       477,
   8.67474,       471,
   8.69519,       471,
   8.71564,       450,
   8.73608,       436,
   8.75653,       392,
   8.77698,       394,
   8.79742,       444,
   8.81787,       431,
   8.83832,       431,
   8.85876,       399,
   8.87921,       410,
   8.89966,       417,
    8.9201,       454,
   8.94055,       418,
     8.961,       436,
   8.98144,       409,
   9.00189,       417,
   9.02234,       414,
   9.04279,       407,
   9.06323,       412,
   9.08368,       390,
   9.10413,       421,
   9.12457,       420,
   9.14502,       367,
   9.16547,       395,
   9.18591,       421,
   9.20636,       436,
   9.22681,       395,
   9.24725,       407,
    9.2677,       421,
   9.28815,       426,
   9.30859,       390,
   9.32904,       411,
   9.34949,       424,
   9.36993,       402,
   9.39038,       434,
   9.41083,       450,
   9.43127,       439,
   9.45172,       445,
   9.47217,       418,
   9.49261,       424,
   9.51306,       475,
   9.53351,       486,
   9.55395,       512,
    9.5744,       507,
   9.59485,       588,
   9.61529,       614,
   9.63574,       647,
   9.65619,       761,
   9.67663,       842,
   9.69708,      1016,
   9.71753,      1210,
   9.73798,      1207,
   9.75842,      1360,
   9.77887,      1355,
   9.79932,      1225,
   9.81976,      1154,
   9.84021,       991,
   9.86066,       768,
    9.8811,       705,
   9.90155,       622,
     9.922,       536,
   9.94244,       539,
   9.96289,       481,
   9.98334,       452,
   10.0038,       459,
   10.0242,       477,
   10.0447,       463,
   10.0651,       465,
   10.0856,       459,
    10.106,       477,
   10.1265,       445,
   10.1469,       443,
   10.1674,       432,
   10.1878,       477,
   10.2083,       472,
   10.2287,       445,
   10.2491,       452,
   10.2696,       491,
     10.29,       458,
   10.3105,       480,
   10.3309,       456,
   10.3514,       420,
   10.3718,       401,
   10.3923,       463,
   10.4127,       459,
   10.4332,       451,
   10.4536,       441,
   10.4741,       427,
   10.4945,       432,
    10.515,       424,
   10.5354,       459,
   10.5558,       475,
   10.5763,       524,
   10.5967,       592,
   10.6172,       727,
   10.6376,       879,
   10.6581,      1027,
   10.6785,      1159,
    10.699,      1197,
   10.7194,      1123,
   10.7399,      1054,
   10.7603,       902,
   10.7808,       802,
   10.8012,       714,
   10.8217,       617,
   10.8421,       547,
   10.8625,       490,
    10.883,       502,
   10.9034,       511,
   10.9239,       473,
   10.9443,       469,
   10.9648,       457,
   10.9852,       480,
   11.0057,       489,
   11.0261,       535,
   11.0466,       551,
    11.067,       510,
   11.0875,       531,
   11.1079,       574,
   11.1284,       603,
   11.1488,       606,
   11.1692,       636,
   11.1897,       640,
   11.2101,       682,
   11.2306,       722,
    11.251,       746,
   11.2715,       805,
   11.2919,       870,
   11.3124,       876,
   11.3328,      1083,
   11.3533,      1208,
   11.3737,      1453,
   11.3942,      1711,
   11.4146,      2078,
   11.4351,      2468,
   11.4555,      3148,
    11.476,      3597,
   11.4964,      4079,
   11.5168,      4312,
   11.5373,      4526,
   11.5577,      4455,
   11.5782,      4129,
   11.5986,      3756,
   11.6191,      3210,
   11.6395,      2682,
     11.66,      2220,
   11.6804,      1821,
   11.7009,      1499,
   11.7213,      1200,
   11.7418,      1053,
   11.7622,       962,
   11.7827,       832,
   11.8031,       765,
   11.8235,       728,
    11.844,       708,
   11.8644,       624,
   11.8849,       637,
   11.9053,       631,
   11.9258,       646,
   11.9462,       612,
   11.9667,       604,
   11.9871,       627,
   12.0076,       641,
    12.028,       639,
   12.0485,       739,
   12.0689,       714,
   12.0894,       771,
   12.1098,       757,
   12.1302,       733,
   12.1507,       773,
   12.1711,       746,
   12.1916,       827,
    12.212,       845,
   12.2325,       876,
   12.2529,       996,
   12.2734,      1072,
   12.2938,      1251,
   12.3143,      1361,
   12.3347,      1819,
   12.3552,      2202,
   12.3756,      2648,
   12.3961,      3314,
   12.4165,      4026,
   12.4369,      4855,
   12.4574,      5536,
   12.4778,      6051,
   12.4983,      6583,
   12.5187,      6936,
   12.5392,      6771,
   12.5596,      6459,
   12.5801,      5781,
   12.6005,      5114,
    12.621,      4431,
   12.6414,      3620,
   12.6619,      2991,
   12.6823,      2371,
   12.7028,      1967,
   12.7232,      1613,
   12.7437,      1298,
   12.7641,      1215,
   12.7845,      1078,
    12.805,       895,
   12.8254,       861,
   12.8459,       796,
   12.8663,       719,
   12.8868,       726,
   12.9072,       661,
   12.9277,       661,
   12.9481,       654,
   12.9686,       612,
    12.989,       629,
   13.0095,       589,
   13.0299,       613,
   13.0504,       592,
   13.0708,       600,
   13.0912,       585,
   13.1117,       609,
   13.1321,       556,
   13.1526,       567,
    13.173,       559,
   13.1935,       570,
   13.2139,       602,
   13.2344,       633,
   13.2548,       635,
   13.2753,       665,
   13.2957,       683,
   13.3162,       716,
   13.3366,       733,
   13.3571,       825,
   13.3775,       875,
   13.3979,       996,
   13.4184,      1230,
   13.4388,      1641,
   13.4593,      2397,
   13.4797,      3575,
   13.5002,      5508,
   13.5206,      7329,
   13.5411,      8291,
   13.5615,      8596,
    13.582,      8445,
   13.6024,      7902,
   13.6229,      6710,
   13.6433,      5529,
   13.6638,      4059,
   13.6842,      3092,
   13.7046,      2210,
   13.7251,      1509,
   13.7455,      1137,
    13.766,       892,
   13.7864,       806,
   13.8069,       760,
   13.8273,       640,
   13.8478,       663,
   13.8682,       628,
   13.8887,       633,
   13.9091,       621,
   13.9296,       611,
     13.95,       574,
   13.9705,       633,
   13.9909,       585,
   14.0113,       562,
   14.0318,       583,
   14.0522,       550,
   14.0727,       574,
   14.0931,       505,
   14.1136,       489,
    14.134,       473,
   14.1545,       533,
   14.1749,       478,
   14.1954,       511,
   14.2158,       479,
   14.2363,       472,
   14.2567,       528,
   14.2772,       496,
   14.2976,       525,
   14.3181,       490,
   14.3385,       578,
   14.3589,       516,
   14.3794,       535,
   14.3998,       652,
   14.4203,       679,
   14.4407,       740,
   14.4612,       700,
   14.4816,       828,
   14.5021,       969,
   14.5225,      1046,
    14.543,      1250,
   14.5634,      1491,
   14.5839,      1882,
   14.6043,      1683,
   14.6248,      1359,
   14.6452,      1385,
   14.6656,      1456,
   14.6861,      1411,
   14.7065,      1098,
    14.727,      1030,
   14.7474,       979,
   14.7679,       998,
   14.7883,       982,
   14.8088,      1063,
   14.8292,      1133,
   14.8497,      1299,
   14.8701,      1408,
   14.8906,      1686,
    14.911,      2049,
   14.9315,      2459,
   14.9519,      2817,
   14.9723,      3456,
   14.9928,      4123,
   15.0132,      4832,
   15.0337,      5422,
   15.0541,      5613,
   15.0746,      6039,
    15.095,      5865,
   15.1155,      5785,
   15.1359,      5254,
   15.1564,      5013,
   15.1768,      4378,
   15.1973,      3709,
   15.2177,      3178,
   15.2382,      2688,
   15.2586,      2332,
    15.279,      1912,
   15.2995,      1649,
   15.3199,      1460,
   15.3404,      1265,
   15.3608,      1135,
   15.3813,      1032,
   15.4017,       974,
   15.4222,       817,
   15.4426,       817,
   15.4631,       717,
   15.4835,       697,
    15.504,       714,
   15.5244,       627,
   15.5449,       636,
   15.5653,       620,
   15.5858,       595,
   15.6062,       551,
   15.6266,       566,
   15.6471,       532,
   15.6675,       528,
    15.688,       474,
   15.7084,       508,
   15.7289,       556,
   15.7493,       517,
   15.7698,       461,
   15.7902,       422,
   15.8107,       471,
   15.8311,       474,
   15.8516,       453,
    15.872,       429,
   15.8925,       416,
   15.9129,       457,
   15.9333,       416,
   15.9538,       433,
   15.9742,       442,
   15.9947,       406,
   16.0151,       464,
   16.0356,       448,
    16.056,       466,
   16.0765,       406,
   16.0969,       401,
   16.1174,       385,
   16.1378,       409,
   16.1583,       427,
   16.1787,       401,
   16.1992,       430,
   16.2196,       390,
     16.24,       406,
   16.2605,       408,
   16.2809,       400,
   16.3014,       404,
   16.3218,       427,
   16.3423,       485,
   16.3627,       499,
   16.3832,       579,
   16.4036,       717,
   16.4241,       976,
   16.4445,      1248,
    16.465,      1297,
   16.4854,      1289,
   16.5059,      1292,
   16.5263,      1278,
   16.5467,      1114,
   16.5672,      1135,
   16.5876,      1005,
   16.6081,       795,
   16.6285,       763,
    16.649,       629,
   16.6694,       533,
   16.6899,       477,
   16.7103,       418,
   16.7308,       412,
   16.7512,       392,
   16.7717,       406,
   16.7921,       421,
   16.8126,       358,
    16.833,       376,
   16.8535,       408,
   16.8739,       366,
   16.8943,       396,
   16.9148,       437,
   16.9352,       402,
   16.9557,       415,
   16.9761,       386,
   16.9966,       400,
    17.017,       385,
   17.0375,       423,
   17.0579,       419,
   17.0784,       414,
   17.0988,       388,
   17.1193,       422,
   17.1397,       419,
   17.1602,       407,
   17.1806,       389,
    17.201,       395,
   17.2215,       421,
   17.2419,       422,
   17.2624,       435,
   17.2828,       458,
   17.3033,       454,
   17.3237,       424,
   17.3442,       430,
   17.3646,       441,
   17.3851,       442,
   17.4055,       480,
    17.426,       515,
   17.4464,       520,
   17.4669,       562,
   17.4873,       534,
   17.5077,       552,
   17.5282,       609,
   17.5486,       568,
   17.5691,       573,
   17.5895,       689,
     17.61,       702,
   17.6304,       703,
   17.6509,       729,
   17.6713,       814,
   17.6918,       829,
   17.7122,       876,
   17.7327,       827,
   17.7531,       950,
   17.7736,       939,
    17.794,       982,
   17.8144,      1021,
   17.8349,      1016,
   17.8553,       992,
   17.8758,       988,
   17.8962,      1114,
   17.9167,      1308,
   17.9371,      1631,
   17.9576,      1918,
    17.978,      2118,
   17.9985,      2221,
   18.0189,      2039,
   18.0394,      2015,
   18.0598,      1916,
   18.0803,      1795,
   18.1007,      1651,
   18.1211,      1454,
   18.1416,      1286,
    18.162,      1106,
   18.1825,       951,
   18.2029,       898,
   18.2234,       827,
   18.2438,       754,
   18.2643,       754,
   18.2847,       669,
   18.3052,       746,
   18.3256,       699,
   18.3461,       696,
   18.3665,       669,
    18.387,       669,
   18.4074,       651,
   18.4279,       688,
   18.4483,       713,
   18.4687,       684,
   18.4892,       724,
   18.5096,       677,
   18.5301,       755,
   18.5505,       750,
    18.571,       759,
   18.5914,       728,
   18.6119,       718,
   18.6323,       687,
   18.6528,       732,
   18.6732,       651,
   18.6937,       667,
   18.7141,       662,
   18.7346,       618,
    18.755,       581,
   18.7754,       600,
   18.7959,       597,
   18.8163,       533,
   18.8368,       571,
   18.8572,       606,
   18.8777,       648,
   18.8981,       578,
   18.9186,       618,
    18.939,       633,
   18.9595,       668,
   18.9799,       654,
   19.0004,       675,
   19.0208,       601,
   19.0413,       695,
   19.0617,       641,
   19.0821,       706,
   19.1026,       690,
    19.123,       685,
   19.1435,       650,
   19.1639,       650,
   19.1844,       734,
   19.2048,       649,
   19.2253,       640,
   19.2457,       655,
   19.2662,       689,
   19.2866,       682,
   19.3071,       691,
   19.3275,       695,
    19.348,       780,
   19.3684,       847,
   19.3888,       925,
   19.4093,       979,
   19.4297,      1016,
   19.4502,      1036,
   19.4706,      1042,
   19.4911,      1011,
   19.5115,      1096,
    19.532,      1070,
   19.5524,      1299,
   19.5729,      1437,
   19.5933,      1813,
   19.6138,      1988,
   19.6342,      1988,
   19.6547,      1938,
   19.6751,      1868,
   19.6956,      1854,
    19.716,      1816,
   19.7364,      1835,
   19.7569,      1909,
   19.7773,      1922,
   19.7978,      2052,
   19.8182,      2198,
   19.8387,      2435,
   19.8591,      2614,
   19.8796,      2974,
      19.9,      3142,
   19.9205,      3376,
   19.9409,      3444,
   19.9614,      3467,
   19.9818,      3235,
   20.0023,      3197,
   20.0227,      3010,
   20.0431,      2708,
   20.0636,      2470,
    20.084,      2269,
   20.1045,      1991,
   20.1249,      1838,
   20.1454,      1553,
   20.1658,      1382,
   20.1863,      1211,
   20.2067,      1119,
   20.2272,      1016,
   20.2476,       871,
   20.2681,       849,
   20.2885,       774,
    20.309,       738,
   20.3294,       693,
   20.3498,       623,
   20.3703,       673,
   20.3907,       609,
   20.4112,       594,
   20.4316,       593,
   20.4521,       550,
   20.4725,       599,
    20.493,       578,
   20.5134,       595,
   20.5339,       623,
   20.5543,       673,
   20.5748,       855,
   20.5952,      1117,
   20.6157,      1231,
   20.6361,      1072,
   20.6565,       877,
    20.677,       861,
   20.6974,       870,
   20.7179,       917,
   20.7383,       938,
   20.7588,       841,
   20.7792,       709,
   20.7997,       636,
   20.8201,       597,
   20.8406,       571,
    20.861,       508,
   20.8815,       480,
   20.9019,       474,
   20.9224,       465,
   20.9428,       496,
   20.9633,       500,
   20.9837,       497,
   21.0041,       491,
   21.0246,       549,
    21.045,       514,
   21.0655,       507,
   21.0859,       480,
   21.1064,       505,
   21.1268,       484,
   21.1473,       463,
   21.1677,       538,
   21.1882,       511,
   21.2086,       561,
   21.2291,       534,
   21.2495,       629,
     21.27,       685,
   21.2904,       812,
   21.3108,       898,
   21.3313,       934,
   21.3517,       900,
   21.3722,       962,
   21.3926,       983,
   21.4131,      1045,
   21.4335,      1276,
    21.454,      1607,
   21.4744,      1909,
   21.4949,      1951,
   21.5153,      1921,
   21.5358,      1786,
   21.5562,      1668,
   21.5767,      1512,
   21.5971,      1409,
   21.6175,      1349,
    21.638,      1281,
   21.6584,      1177,
   21.6789,      1097,
   21.6993,       911,
   21.7198,       802,
   21.7402,       706,
   21.7607,       678,
   21.7811,       739,
   21.8016,       712,
    21.822,       822,
   21.8425,       904,
   21.8629,      1127,
   21.8834,      1481,
   21.9038,      1753,
   21.9242,      1981,
   21.9447,      2083,
   21.9651,      1848,
   21.9856,      1836,
    22.006,      1747,
   22.0265,      1812,
   22.0469,      1736,
   22.0674,      1957,
   22.0878,      1861,
   22.1083,      1817,
   22.1287,      1704,
   22.1492,      1773,
   22.1696,      1724,
   22.1901,      1620,
   22.2105,      1643,
    22.231,      1634,
   22.2514,      1610,
   22.2718,      1530,
   22.2923,      1608,
   22.3127,      1476,
   22.3332,      1446,
   22.3536,      1454,
   22.3741,      1336,
   22.3945,      1352,
    22.415,      1416,
   22.4354,      1412,
   22.4559,      1612,
   22.4763,      1753,
   22.4968,      1952,
   22.5172,      2124,
   22.5377,      2479,
   22.5581,      2681,
   22.5785,      2881,
    22.599,      2954,
   22.6194,      3013,
   22.6399,      2875,
   22.6603,      2847,
   22.6808,      2759,
   22.7012,      2583,
   22.7217,      2373,
   22.7421,      2216,
   22.7626,      2021,
    22.783,      1791,
   22.8035,      1594,
   22.8239,      1460,
   22.8444,      1317,
   22.8648,      1197,
   22.8852,      1033,
   22.9057,       969,
   22.9261,       883,
   22.9466,       856,
    22.967,       827,
   22.9875,       826,
   23.0079,       764,
   23.0284,       772,
   23.0488,       775,
   23.0693,       773,
   23.0897,       700,
   23.1102,       685,
   23.1306,       674,
   23.1511,       641,
   23.1715,       620,
   23.1919,       595,
   23.2124,       618,
   23.2328,       567,
   23.2533,       567,
   23.2737,       522,
   23.2942,       567,
   23.3146,       559,
   23.3351,       522,
   23.3555,       567,
    23.376,       531,
   23.3964,       522,
   23.4169,       496,
   23.4373,       568,
   23.4578,       536,
   23.4782,       555,
   23.4986,       575,
   23.5191,       549,
   23.5395,       528,
     23.56,       516,
   23.5804,       507,
   23.6009,       550,
   23.6213,       531,
   23.6418,       517,
   23.6622,       514,
   23.6827,       514,
   23.7031,       457,
   23.7236,       507,
    23.744,       492,
   23.7645,       530,
   23.7849,       479,
   23.8054,       514,
   23.8258,       490,
   23.8462,       533,
   23.8667,       466,
   23.8871,       447,
   23.9076,       472,
    23.928,       469,
   23.9485,       487,
   23.9689,       461,
   23.9894,       502,
   24.0098,       475,
   24.0303,       496,
   24.0507,       523,
   24.0712,       499,
   24.0916,       474,
   24.1121,       502,
   24.1325,       518,
   24.1529,       524,
   24.1734,       556,
   24.1938,       562,
   24.2143,       559,
   24.2347,       525,
   24.2552,       526,
   24.2756,       498,
   24.2961,       514,
   24.3165,       515,
    24.337,       523,
   24.3574,       535,
   24.3779,       541,
   24.3983,       528,
   24.4188,       571,
   24.4392,       571,
   24.4596,       569,
   24.4801,       532,
   24.5005,       589,
    24.521,       564,
   24.5414,       588,
   24.5619,       591,
   24.5823,       578,
   24.6028,       594,
   24.6232,       580,
   24.6437,       593,
   24.6641,       629,
   24.6846,       579,
    24.705,       661,
   24.7255,       631,
   24.7459,       673,
   24.7663,       682,
   24.7868,       719,
   24.8072,       783,
   24.8277,       805,
   24.8481,       808,
   24.8686,       890,
    24.889,       984,
   24.9095,      1026,
   24.9299,      1094,
   24.9504,      1205,
   24.9708,      1294,
   24.9913,      1384,
   25.0117,      1370,
   25.0322,      1459,
   25.0526,      1376,
   25.0731,      1386,
   25.0935,      1309,
   25.1139,      1378,
   25.1344,      1230,
   25.1548,      1278,
   25.1753,      1215,
   25.1957,      1167,
   25.2162,      1067,
   25.2366,      1034,
   25.2571,      1081,
   25.2775,      1093,
    25.298,      1068,
   25.3184,      1113,
   25.3389,      1007,
   25.3593,       945,
   25.3798,       896,
   25.4002,       821,
   25.4206,       813,
   25.4411,       852,
   25.4615,       748,
    25.482,       707,
   25.5024,       795,
   25.5229,       739,
   25.5433,       734,
   25.5638,       674,
   25.5842,       762,
   25.6047,       764,
   25.6251,       968,
   25.6456,       984,
    25.666,      1094,
   25.6865,      1125,
   25.7069,      1065,
   25.7273,       976,
   25.7478,       874,
   25.7682,       823,
   25.7887,       838,
   25.8091,       863,
   25.8296,       831,
     25.85,       852,
   25.8705,       860,
   25.8909,       688,
   25.9114,       667,
   25.9318,       682,
   25.9523,       672,
   25.9727,       622,
   25.9932,       584,
   26.0136,       601,
    26.034,       554,
   26.0545,       576,
   26.0749,       584,
   26.0954,       583,
   26.1158,       519,
   26.1363,       548,
   26.1567,       515,
   26.1772,       546,
   26.1976,       521,
   26.2181,       539,
   26.2385,       513,
    26.259,       530,
   26.2794,       508,
   26.2999,       533,
   26.3203,       575,
   26.3408,       531,
   26.3612,       523,
   26.3816,       552,
   26.4021,       449,
   26.4225,       545,
    26.443,       532,
   26.4634,       562,
   26.4839,       526,
   26.5043,       632,
   26.5248,       554,
   26.5452,       602,
   26.5657,       608,
   26.5861,       674,
   26.6066,       629,
    26.627,       641,
   26.6475,       589,
   26.6679,       623,
   26.6883,       684,
   26.7088,       664,
   26.7292,       658,
   26.7497,       728,
   26.7701,       638,
   26.7906,       684,
    26.811,       670,
   26.8315,       683,
   26.8519,       679,
   26.8724,       648,
   26.8928,       649,
   26.9133,       698,
   26.9337,       661,
   26.9542,       759,
   26.9746,       852,
    26.995,       941,
   27.0155,       955,
   27.0359,       974,
   27.0564,       888,
   27.0768,       872,
   27.0973,       813,
   27.1177,       818,
   27.1382,       923,
   27.1586,       861,
   27.1791,       837,
   27.1995,       862,
     27.22,       866,
   27.2404,       822,
   27.2609,       784,
   27.2813,       882,
   27.3017,       778,
   27.3222,       778,
   27.3426,       781,
   27.3631,       632,
   27.3835,       679,
    27.404,       654,
   27.4244,       624,
   27.4449,       628,
   27.4653,       648,
   27.4858,       624,
   27.5062,       562,
   27.5267,       553,
   27.5471,       599,
   27.5676,       504,
    27.588,       501,
   27.6084,       496,
   27.6289,       525,
   27.6493,       598,
   27.6698,       521,
   27.6902,       511,
   27.7107,       500,
   27.7311,       555,
   27.7516,       592,
    27.772,       539,
   27.7925,       574,
   27.8129,       569,
   27.8334,       618,
   27.8538,       616,
   27.8743,       670,
   27.8947,       702,
   27.9152,       696,
   27.9356,       716,
    27.956,       784,
   27.9765,       786,
   27.9969,       798,
   28.0174,       794,
   28.0378,       755,
   28.0583,       690,
   28.0787,       643,
   28.0992,       701,
   28.1196,       659,
   28.1401,       665,
   28.1605,       718,
    28.181,       626,
   28.2014,       635,
   28.2219,       592,
   28.2423,       562,
   28.2627,       550,
   28.2832,       543,
   28.3036,       551,
   28.3241,       527,
   28.3445,       509,
    28.365,       538,
   28.3854,       466,
   28.4059,       513,
   28.4263,       455,
   28.4468,       508,
   28.4672,       518,
   28.4877,       534,
   28.5081,       524,
   28.5286,       516,
    28.549,       528,
   28.5694,       626,
   28.5899,       718,
   28.6103,       880,
   28.6308,       837,
   28.6512,       852,
   28.6717,       809,
   28.6921,       747,
   28.7126,       713,
    28.733,       611,
   28.7535,       658,
   28.7739,       645,
   28.7944,       687,
   28.8148,       679,
   28.8353,       656,
   28.8557,       640,
   28.8761,       586,
   28.8966,       587,
    28.917,       581,
   28.9375,       594,
   28.9579,       580,
   28.9784,       718,
   28.9988,       683,
   29.0193,       747,
   29.0397,       702,
   29.0602,       709,
   29.0806,       667,
   29.1011,       598,
   29.1215,       590,
    29.142,       641,
   29.1624,       662,
   29.1829,       655,
   29.2033,       671,
   29.2237,       708,
   29.2442,       718,
   29.2646,       698,
   29.2851,       673,
   29.3055,       579,
    29.326,       589,
   29.3464,       581,
   29.3669,       546,
   29.3873,       544,
   29.4078,       545,
   29.4282,       555,
   29.4487,       553,
   29.4691,       544,
   29.4896,       506,
     29.51,       508,
   29.5304,       518,
   29.5509,       540,
   29.5713,       527,
   29.5918,       534,
   29.6122,       499,
   29.6327,       538,
   29.6531,       511,
   29.6736,       511,
    29.694,       486,
   29.7145,       531,
   29.7349,       534,
   29.7554,       529,
   29.7758,       539,
   29.7963,       489,
   29.8167,       523,
   29.8371,       527,
   29.8576,       535,
    29.878,       546,
   29.8985,       577,
   29.9189,       567,
   29.9394,       559,
   29.9598,       553,
   29.9803,       573,
   30.0007,       566,
   30.0212,       610,
   30.0416,       569,
   30.0621,       602,
   30.0825,       630,
    30.103,       632,
   30.1234,       639,
   30.1438,       662,
   30.1643,       729,
   30.1847,       665,
   30.2052,       713,
   30.2256,       712,
   30.2461,       706,
   30.2665,       647,
    30.287,       694,
   30.3074,       662,
   30.3279,       684,
   30.3483,       693,
   30.3688,       717,
   30.3892,       703,
   30.4097,       712,
   30.4301,       714,
   30.4506,       732,
    30.471,       681,
   30.4914,       704,
   30.5119,       661,
   30.5323,       656,
   30.5528,       617,
   30.5732,       686,
   30.5937,       634,
   30.6141,       629,
   30.6346,       605,
    30.655,       612,
   30.6755,       592,
   30.6959,       597,
   30.7164,       539,
   30.7368,       614,
   30.7573,       619,
   30.7777,       613,
   30.7981,       631,
   30.8186,       657,
    30.839,       695,
   30.8595,       680,
   30.8799,       727,
   30.9004,       661,
   30.9208,       601,
   30.9413,       614,
   30.9617,       613,
   30.9822,       584,
   31.0026,       609,
   31.0231,       641,
   31.0435,       641,
    31.064,       642,
   31.0844,       639,
   31.1048,       622,
   31.1253,       591,
   31.1457,       583,
   31.1662,       530,
   31.1866,       559,
   31.2071,       561,
   31.2275,       567,
    31.248,       615,
   31.2684,       551,
   31.2889,       557,
   31.3093,       588,
   31.3298,       577,
   31.3502,       617,
   31.3707,       670,
   31.3911,       642,
   31.4115,       665,
    31.432,       712,
   31.4524,       746,
   31.4729,       738,
   31.4933,       791,
   31.5138,       811,
   31.5342,       829,
   31.5547,       859,
   31.5751,       774,
   31.5956,       716,
    31.616,       755,
   31.6365,       731,
   31.6569,       791,
   31.6774,       708,
   31.6978,       722,
   31.7183,       703,
   31.7387,       711,
   31.7591,       669,
   31.7796,       702,
      31.8,       694,
   31.8205,       732,
   31.8409,       775,
   31.8614,       800,
   31.8818,       840,
   31.9023,       790,
   31.9227,       735,
   31.9432,       811,
   31.9636,       717,
   31.9841,       775,
   32.0045,       859,
    32.025,       822,
   32.0454,       837,
   32.0658,       884,
   32.0863,       944,
   32.1067,       936,
   32.1272,       932,
   32.1476,       859,
   32.1681,       944,
   32.1885,       896,
    32.209,       844,
   32.2294,       800,
   32.2499,       852,
   32.2703,       828,
   32.2908,       742,
   32.3112,       831,
   32.3317,       719,
   32.3521,       711,
   32.3725,       676,
    32.393,       666,
   32.4134,       691,
   32.4339,       597,
   32.4543,       637,
   32.4748,       577,
   32.4952,       527,
   32.5157,       600,
   32.5361,       532,
   32.5566,       563,
    32.577,       534,
   32.5975,       482,
   32.6179,       478,
   32.6384,       516,
   32.6588,       499,
   32.6792,       491,
   32.6997,       493,
   32.7201,       543,
   32.7406,       552,
    32.761,       573,
   32.7815,       584,
   32.8019,       605,
   32.8224,       524,
   32.8428,       465,
   32.8633,       495,
   32.8837,       498,
   32.9042,       514,
   32.9246,       472,
   32.9451,       474,
   32.9655,       536,
   32.9859,       486,
   33.0064,       512,
   33.0268,       484,
   33.0473,       492,
   33.0677,       497,
   33.0882,       510,
   33.1086,       452,
   33.1291,       506,
   33.1495,       524,
     33.17,       504,
   33.1904,       481,
   33.2109,       516,
   33.2313,       453,
   33.2518,       468,
   33.2722,       479,
   33.2927,       493,
   33.3131,       470,
   33.3335,       441,
    33.354,       489,
   33.3744,       475,
   33.3949,       464,
   33.4153,       512,
   33.4358,       533,
   33.4562,       568,
   33.4767,       554,
   33.4971,       572,
   33.5176,       542,
    33.538,       534,
   33.5585,       544,
   33.5789,       453,
   33.5994,       480,
   33.6198,       472,
   33.6402,       480,
   33.6607,       539,
   33.6811,       497,
   33.7016,       503,
    33.722,       517,
   33.7425,       454,
   33.7629,       463,
   33.7834,       483,
   33.8038,       452,
   33.8243,       476,
   33.8447,       500,
   33.8652,       458,
   33.8856,       444,
   33.9061,       488,
   33.9265,       437,
   33.9469,       441,
   33.9674,       446,
   33.9878,       467,
   34.0083,       431,
   34.0287,       437,
   34.0492,       452,
   34.0696,       451,
   34.0901,       412,
   34.1105,       472,
    34.131,       446,
   34.1514,       433,
   34.1719,       435,
   34.1923,       477,
   34.2128,       433,
   34.2332,       424,
   34.2536,       498,
   34.2741,       443,
   34.2945,       453,
    34.315,       445,
   34.3354,       449,
   34.3559,       439,
   34.3763,       436,
   34.3968,       388,
   34.4172,       449,
   34.4377,       444,
   34.4581,       451,
   34.4786,       432,
    34.499,       451,
   34.5195,       464,
   34.5399,       447,
   34.5604,       432,
   34.5808,       441,
   34.6012,       465,
   34.6217,       430,
   34.6421,       443,
   34.6626,       447,
    34.683,       483,
   34.7035,       427,
   34.7239,       456,
   34.7444,       486,
   34.7648,       477,
   34.7853,       499,
   34.8057,       520,
   34.8262,       491,
   34.8466,       490,
   34.8671,       481,
   34.8875,       506,
   34.9079,       517,
   34.9284,       518,
   34.9488,       513,
   34.9693,       463,
   34.9897,       461,
   35.0102,       509,
   35.0306,       563,
   35.0511,       519,
   35.0715,       568,
    35.092,       593,
   35.1124,       549,
   35.1329,       576,
   35.1533,       623,
   35.1738,       545,
   35.1942,       517,
   35.2146,       500,
   35.2351,       495,
   35.2555,       500,
    35.276,       496,
   35.2964,       523,
   35.3169,       575,
   35.3373,       512,
   35.3578,       553,
   35.3782,       508,
   35.3987,       480,
   35.4191,       510,
   35.4396,       473,
     35.46,       508,
   35.4805,       475,
   35.5009,       458,
   35.5213,       470,
   35.5418,       464,
   35.5622,       476,
   35.5827,       446,
   35.6031,       481,
   35.6236,       463,
    35.644,       520,
   35.6645,       482,
   35.6849,       522,
   35.7054,       499,
   35.7258,       487,
   35.7463,       456,
   35.7667,       458,
   35.7872,       484,
   35.8076,       481,
   35.8281,       528,
   35.8485,       542,
   35.8689,       567,
   35.8894,       634,
   35.9098,       716,
   35.9303,       730,
   35.9507,       690,
   35.9712,       723,
   35.9916,       676,
   36.0121,       652,
   36.0325,       628,
    36.053,       600,
   36.0734,       669,
   36.0939,       679,
   36.1143,       656,
   36.1348,       678,
   36.1552,       708,
   36.1756,       723,
   36.1961,       730,
   36.2165,       658,
    36.237,       760,
   36.2574,       769,
   36.2779,       751,
   36.2983,       753,
   36.3188,       742,
   36.3392,       681,
   36.3597,       657,
   36.3801,       662,
   36.4006,       650,
    36.421,       652,
   36.4415,       595,
   36.4619,       649,
   36.4823,       597,
   36.5028,       668,
   36.5232,       627,
   36.5437,       633,
   36.5641,       626,
   36.5846,       582,
    36.605,       523,
   36.6255,       565,
   36.6459,       538,
   36.6664,       548,
   36.6868,       548,
   36.7073,       549,
   36.7277,       512,
   36.7482,       474,
   36.7686,       433,
    36.789,       466,
   36.8095,       472,
   36.8299,       472,
   36.8504,       478,
   36.8708,       497,
   36.8913,       502,
   36.9117,       460,
   36.9322,       441,
   36.9526,       461,
   36.9731,       450,
   36.9935,       479,
    37.014,       474,
   37.0344,       428,
   37.0549,       439,
   37.0753,       423,
   37.0957,       449,
   37.1162,       453,
   37.1366,       432,
   37.1571,       435,
   37.1775,       446,
    37.198,       427,
   37.2184,       453,
   37.2389,       460,
   37.2593,       434,
   37.2798,       445,
   37.3002,       421,
   37.3207,       476,
   37.3411,       493,
   37.3616,       472,
    37.382,       541,
   37.4025,       508,
   37.4229,       503,
   37.4433,       535,
   37.4638,       522,
   37.4842,       533,
   37.5047,       504,
   37.5251,       533,
   37.5456,       543,
    37.566,       524,
   37.5865,       543,
   37.6069,       540,
   37.6274,       517,
   37.6478,       551,
   37.6683,       484,
   37.6887,       522,
   37.7092,       485,
   37.7296,       460,
     37.75,       492,
   37.7705,       470,
   37.7909,       488,
   37.8114,       470,
   37.8318,       467,
   37.8523,       460,
   37.8727,       445,
   37.8932,       454,
   37.9136,       450,
   37.9341,       445,
   37.9545,       435,
    37.975,       428,
   37.9954,       445,
   38.0159,       438,
   38.0363,       445,
   38.0567,       417,
   38.0772,       441,
   38.0976,       391,
   38.1181,       418,
   38.1385,       430,
    38.159,       411,
   38.1794,       386,
   38.1999,       400,
   38.2203,       419,
   38.2408,       396,
   38.2612,       442,
   38.2817,       398,
   38.3021,       382,
   38.3226,       425,
    38.343,       424,
   38.3634,       395,
   38.3839,       436,
   38.4043,       377,
   38.4248,       422,
   38.4452,       411,
   38.4657,       430,
   38.4861,       370,
   38.5066,       396,
    38.527,       418,
   38.5475,       394,
   38.5679,       388,
   38.5884,       400,
   38.6088,       416,
   38.6293,       372,
   38.6497,       348,
   38.6702,       394,
   38.6906,       387,
    38.711,       394,
   38.7315,       419,
   38.7519,       414,
   38.7724,       378,
   38.7928,       410,
   38.8133,       403,
   38.8337,       424,
   38.8542,       411,
   38.8746,       392,
   38.8951,       408,
   38.9155,       403,
    38.936,       422,
   38.9564,       401,
   38.9769,       413,
   38.9973,       409,
   39.0177,       392,
   39.0382,       393,
   39.0586,       433,
   39.0791,       388,
   39.0995,       435,
     39.12,       402,
   39.1404,       454,
   39.1609,       478,
   39.1813,       489,
   39.2018,       499,
   39.2222,       457,
   39.2427,       445,
   39.2631,       497,
   39.2836,       479,
    39.304,       456,
   39.3244,       470,
   39.3449,       487,
   39.3653,       482,
   39.3858,       479,
   39.4062,       491,
   39.4267,       438,
   39.4471,       469,
   39.4676,       514,
    39.488,       472,
   39.5085,       435,
   39.5289,       500,
   39.5494,       444,
   39.5698,       478,
   39.5903,       439,
   39.6107,       459,
   39.6311,       473,
   39.6516,       487,
    39.672,       530,
   39.6925,       560,
   39.7129,       581,
   39.7334,       559,
   39.7538,       658,
   39.7743,       613,
   39.7947,       620,
   39.8152,       611,
   39.8356,       589,
   39.8561,       613,
   39.8765,       536,
    39.897,       502,
   39.9174,       516,
   39.9379,       508,
   39.9583,       559,
   39.9787,       550,
   39.9992,       536,
