;RAW4.00
[RawHeader]
Date=01/20/2022
EstimatedTotalTime=1726.86
FurtherDQLReading=0
HardwareIndicator=65519
MeasuredTotalTime=1726.86
MeasurementFlag=1
NumberOfMeasuredRanges=1
NumberOfRanges=1
Time=10:21:54

[VarInfo]
Type=USER
Flags=0
Value=Lab Manager

[VarInfo]
Type=SAMPLEID
Flags=0
Value=

[VarInfo]
Type=COMMENT
Flags=0
Value=

[VarInfo]
Type=UTF
Flags=0
Value=

[VarInfo]
Type=CREATOR
Flags=0
Value=BrmlToV4Converter

[VarInfo]
Type=CREATOR_VERSION
Flags=0
Value=7.3.1.0

[HardwareConfiguration]
AbsorptionFactor=9999
ActivateAbsorber=0
Alpha1=0.7093
Alpha2=0.71359
AlphaAverage=0.71073
AlphaRatio=0.5
Analyzer=0
Anode=Mo
AntiScatteringSlit=18
BeamOpticsFlags=0
Beta=0.63229
BetaRelativeIntensity=0
DeactivateAbsorber=0
DetectorSlit=9999
DivergenceSlit=0.2
GoniometerControl=0
GoniometerDiameter=560
GoniometerModel=512
GoniometerStage=7
Monochromator=0
NearSampleSlit=9999
PrimarySollerSlit=2.5
SampleChanger=0
SecondSollerSlit=9999
SynchronousAxis=0
ThinFilmAttachment=9999
WaveUnit=A

[RangeHeader]
ActuallyUsedLambda=0.71073
AdditionalDetectorMask=257
DataRecordLength=4
DelayTime=0
DisplayPlaneNumber=0
EstimatedScanTime=1727
ExtraParametersMask=0
GeneratorCurrent=40
GeneratorVoltage=50
Increment=0.0204468
Increment3=0
NumberOfCompletedData=1566
NumberOfCounts=1
NumberOfDetectors=0
NumberOfDrives=2
NumberOfEncoderDrives=0
NumberOfMeasuredData=1566
NumberOfVaryingParameters=0
RangeStartTime=0
RotationSpeed=60
ScanMode=1
ScanType=Locked Coupled
SimulatedMeasConditions=0
SlitChangerIn=0
SmootingWidth=0
Start=8
Steps=1566
SynchronousRotation=0
Time=192

[VarInfo]
Type=PSD_DISCRIM
Flags=0
Value=0.488;0.518

[PSD]
ActualTwoTheta=9999
FirstUsedChannel=0
FixedPSD=0
PSDOpening=2.94433
PSDType=5

[Drive]
DriveFlags=1
DriveName=2Theta
DriveNumber=2
DriveOffset=0
OffsetIndex=0
OscillationAmplitude=0
OscillationSpeed=0
StartPosition=8

[Drive]
DriveFlags=1
DriveName=Theta
DriveNumber=1
DriveOffset=0
OffsetIndex=0
OscillationAmplitude=0
OscillationSpeed=0
StartPosition=4

[Data]
     Angle,       PSD,
         8,       503,
   8.02045,       480,
   8.04089,       494,
   8.06134,       483,
   8.08179,       479,
   8.10223,       471,
   8.12268,       494,
   8.14313,       433,
   8.16357,       493,
   8.18402,       444,
   8.20447,       450,
   8.22491,       483,
   8.24536,       438,
   8.26581,       487,
   8.28625,       436,
    8.3067,       454,
   8.32715,       487,
    8.3476,       448,
   8.36804,       476,
   8.38849,       449,
   8.40894,       443,
   8.42938,       426,
   8.44983,       428,
   8.47028,       442,
   8.49072,       431,
   8.51117,       428,
   8.53162,       469,
   8.55206,       468,
   8.57251,       442,
   8.59296,       442,
    8.6134,       402,
   8.63385,       407,
    8.6543,       397,
   8.67474,       415,
   8.69519,       420,
   8.71564,       377,
   8.73608,       398,
   8.75653,       429,
   8.77698,       423,
   8.79742,       432,
   8.81787,       395,
   8.83832,       408,
   8.85876,       383,
   8.87921,       358,
   8.89966,       365,
    8.9201,       392,
   8.94055,       398,
     8.961,       409,
   8.98144,       363,
   9.00189,       355,
   9.02234,       419,
   9.04279,       381,
   9.06323,       401,
   9.08368,       347,
   9.10413,       383,
   9.12457,       367,
   9.14502,       412,
   9.16547,       387,
   9.18591,       375,
   9.20636,       365,
   9.22681,       374,
   9.24725,       365,
    9.2677,       364,
   9.28815,       387,
   9.30859,       388,
   9.32904,       375,
   9.34949,       354,
   9.36993,       367,
   9.39038,       353,
   9.41083,       386,
   9.43127,       375,
   9.45172,       381,
   9.47217,       362,
   9.49261,       374,
   9.51306,       413,
   9.53351,       351,
   9.55395,       395,
    9.5744,       400,
   9.59485,       414,
   9.61529,       426,
   9.63574,       413,
   9.65619,       469,
   9.67663,       471,
   9.69708,       550,
   9.71753,       595,
   9.73798,       593,
   9.75842,       581,
   9.77887,       599,
   9.79932,       563,
   9.81976,       510,
   9.84021,       494,
   9.86066,       406,
    9.8811,       417,
   9.90155,       431,
     9.922,       354,
   9.94244,       349,
   9.96289,       372,
   9.98334,       345,
   10.0038,       365,
   10.0242,       339,
   10.0447,       370,
   10.0651,       391,
   10.0856,       358,
    10.106,       364,
   10.1265,       326,
   10.1469,       326,
   10.1674,       333,
   10.1878,       363,
   10.2083,       341,
   10.2287,       373,
   10.2491,       344,
   10.2696,       357,
     10.29,       392,
   10.3105,       369,
   10.3309,       358,
   10.3514,       386,
   10.3718,       363,
   10.3923,       378,
   10.4127,       356,
   10.4332,       388,
   10.4536,       381,
   10.4741,       360,
   10.4945,       439,
    10.515,       453,
   10.5354,       496,
   10.5558,       548,
   10.5763,       585,
   10.5967,       788,
   10.6172,      1037,
   10.6376,      1387,
   10.6581,      1684,
   10.6785,      1957,
    10.699,      2079,
   10.7194,      2087,
   10.7399,      1814,
   10.7603,      1466,
   10.7808,      1095,
   10.8012,       914,
   10.8217,       649,
   10.8421,       534,
   10.8625,       496,
    10.883,       403,
   10.9034,       388,
   10.9239,       381,
   10.9443,       358,
   10.9648,       405,
   10.9852,       379,
   11.0057,       328,
   11.0261,       331,
   11.0466,       356,
    11.067,       397,
   11.0875,       394,
   11.1079,       365,
   11.1284,       421,
   11.1488,       371,
   11.1692,       372,
   11.1897,       412,
   11.2101,       385,
   11.2306,       446,
    11.251,       421,
   11.2715,       438,
   11.2919,       429,
   11.3124,       478,
   11.3328,       497,
   11.3533,       519,
   11.3737,       545,
   11.3942,       718,
   11.4146,       762,
   11.4351,       933,
   11.4555,      1074,
    11.476,      1218,
   11.4964,      1373,
   11.5168,      1430,
   11.5373,      1322,
   11.5577,      1360,
   11.5782,      1292,
   11.5986,      1176,
   11.6191,       949,
   11.6395,       789,
     11.66,       774,
   11.6804,       606,
   11.7009,       564,
   11.7213,       465,
   11.7418,       426,
   11.7622,       426,
   11.7827,       453,
   11.8031,       421,
   11.8235,       396,
    11.844,       433,
   11.8644,       413,
   11.8849,       375,
   11.9053,       367,
   11.9258,       379,
   11.9462,       387,
   11.9667,       410,
   11.9871,       386,
   12.0076,       444,
    12.028,       520,
   12.0485,       547,
   12.0689,       590,
   12.0894,       586,
   12.1098,       581,
   12.1302,       518,
   12.1507,       502,
   12.1711,       487,
   12.1916,       475,
    12.212,       424,
   12.2325,       427,
   12.2529,       524,
   12.2734,       569,
   12.2938,       576,
   12.3143,       686,
   12.3347,       730,
   12.3552,       821,
   12.3756,       938,
   12.3961,      1202,
   12.4165,      1326,
   12.4369,      1475,
   12.4574,      1741,
   12.4778,      1937,
   12.4983,      2036,
   12.5187,      2000,
   12.5392,      1954,
   12.5596,      1910,
   12.5801,      1784,
   12.6005,      1625,
    12.621,      1485,
   12.6414,      1227,
   12.6619,      1092,
   12.6823,       917,
   12.7028,       829,
   12.7232,       688,
   12.7437,       582,
   12.7641,       561,
   12.7845,       536,
    12.805,       469,
   12.8254,       439,
   12.8459,       436,
   12.8663,       471,
   12.8868,       461,
   12.9072,       463,
   12.9277,       457,
   12.9481,       428,
   12.9686,       451,
    12.989,       466,
   13.0095,       491,
   13.0299,       491,
   13.0504,       466,
   13.0708,       492,
   13.0912,       523,
   13.1117,       533,
   13.1321,       524,
   13.1526,       578,
    13.173,       541,
   13.1935,       584,
   13.2139,       651,
   13.2344,       650,
   13.2548,       686,
   13.2753,       732,
   13.2957,       712,
   13.3162,       698,
   13.3366,       858,
   13.3571,       936,
   13.3775,      1125,
   13.3979,      1365,
   13.4184,      1963,
   13.4388,      2777,
   13.4593,      4444,
   13.4797,      7227,
   13.5002,     11433,
   13.5206,     14473,
   13.5411,     16098,
   13.5615,     16713,
    13.582,     16912,
   13.6024,     15415,
   13.6229,     12812,
   13.6433,     10167,
   13.6638,      7619,
   13.6842,      5430,
   13.7046,      3603,
   13.7251,      2254,
   13.7455,      1509,
    13.766,      1046,
   13.7864,       837,
   13.8069,       818,
   13.8273,       757,
   13.8478,       624,
   13.8682,       648,
   13.8887,       668,
   13.9091,       610,
   13.9296,       575,
     13.95,       531,
   13.9705,       567,
   13.9909,       528,
   14.0113,       486,
   14.0318,       501,
   14.0522,       457,
   14.0727,       444,
   14.0931,       399,
   14.1136,       435,
    14.134,       417,
   14.1545,       438,
   14.1749,       400,
   14.1954,       398,
   14.2158,       368,
   14.2363,       377,
   14.2567,       396,
   14.2772,       352,
   14.2976,       338,
   14.3181,       359,
   14.3385,       409,
   14.3589,       445,
   14.3794,       469,
   14.3998,       587,
   14.4203,       665,
   14.4407,       691,
   14.4612,       887,
   14.4816,       889,
   14.5021,      1070,
   14.5225,      1226,
    14.543,      1510,
   14.5634,      1605,
   14.5839,      1589,
   14.6043,      1394,
   14.6248,      1316,
   14.6452,      1350,
   14.6656,      1165,
   14.6861,       855,
   14.7065,       731,
    14.727,       616,
   14.7474,       575,
   14.7679,       542,
   14.7883,       492,
   14.8088,       521,
   14.8292,       535,
   14.8497,       529,
   14.8701,       610,
   14.8906,       641,
    14.911,       735,
   14.9315,       936,
   14.9519,      1017,
   14.9723,      1191,
   14.9928,      1352,
   15.0132,      1451,
   15.0337,      1607,
   15.0541,      1670,
   15.0746,      1725,
    15.095,      1605,
   15.1155,      1557,
   15.1359,      1496,
   15.1564,      1343,
   15.1768,      1208,
   15.1973,      1057,
   15.2177,       909,
   15.2382,       823,
   15.2586,       707,
    15.279,       651,
   15.2995,       558,
   15.3199,       525,
   15.3404,       507,
   15.3608,       506,
   15.3813,       449,
   15.4017,       444,
   15.4222,       357,
   15.4426,       404,
   15.4631,       359,
   15.4835,       329,
    15.504,       349,
   15.5244,       360,
   15.5449,       344,
   15.5653,       314,
   15.5858,       309,
   15.6062,       306,
   15.6266,       331,
   15.6471,       334,
   15.6675,       294,
    15.688,       297,
   15.7084,       294,
   15.7289,       332,
   15.7493,       298,
   15.7698,       285,
   15.7902,       296,
   15.8107,       313,
   15.8311,       342,
   15.8516,       283,
    15.872,       315,
   15.8925,       301,
   15.9129,       291,
   15.9333,       286,
   15.9538,       318,
   15.9742,       327,
   15.9947,       367,
   16.0151,       330,
   16.0356,       359,
    16.056,       319,
   16.0765,       367,
   16.0969,       290,
   16.1174,       330,
   16.1378,       326,
   16.1583,       323,
   16.1787,       311,
   16.1992,       330,
   16.2196,       345,
     16.24,       314,
   16.2605,       326,
   16.2809,       353,
   16.3014,       388,
   16.3218,       385,
   16.3423,       410,
   16.3627,       482,
   16.3832,       655,
   16.4036,       970,
   16.4241,      1496,
   16.4445,      1943,
    16.465,      2060,
   16.4854,      2200,
   16.5059,      2025,
   16.5263,      2083,
   16.5467,      1847,
   16.5672,      1609,
   16.5876,      1388,
   16.6081,      1161,
   16.6285,       959,
    16.649,       715,
   16.6694,       496,
   16.6899,       419,
   16.7103,       385,
   16.7308,       384,
   16.7512,       346,
   16.7717,       354,
   16.7921,       316,
   16.8126,       323,
    16.833,       329,
   16.8535,       313,
   16.8739,       321,
   16.8943,       306,
   16.9148,       291,
   16.9352,       344,
   16.9557,       308,
   16.9761,       348,
   16.9966,       298,
    17.017,       296,
   17.0375,       313,
   17.0579,       321,
   17.0784,       291,
   17.0988,       295,
   17.1193,       313,
   17.1397,       319,
   17.1602,       327,
   17.1806,       309,
    17.201,       334,
   17.2215,       312,
   17.2419,       300,
   17.2624,       285,
   17.2828,       296,
   17.3033,       314,
   17.3237,       327,
   17.3442,       343,
   17.3646,       361,
   17.3851,       339,
   17.4055,       350,
    17.426,       353,
   17.4464,       354,
   17.4669,       405,
   17.4873,       383,
   17.5077,       385,
   17.5282,       397,
   17.5486,       398,
   17.5691,       423,
   17.5895,       415,
     17.61,       426,
   17.6304,       452,
   17.6509,       439,
   17.6713,       442,
   17.6918,       477,
   17.7122,       421,
   17.7327,       461,
   17.7531,       483,
   17.7736,       534,
    17.794,       506,
   17.8144,       531,
   17.8349,       540,
   17.8553,       640,
   17.8758,       698,
   17.8962,       887,
   17.9167,      1260,
   17.9371,      1950,
   17.9576,      2594,
    17.978,      2915,
   17.9985,      2963,
   18.0189,      2989,
   18.0394,      2776,
   18.0598,      2699,
   18.0803,      2435,
   18.1007,      1963,
   18.1211,      1738,
   18.1416,      1504,
    18.162,      1111,
   18.1825,       876,
   18.2029,       658,
   18.2234,       542,
   18.2438,       462,
   18.2643,       465,
   18.2847,       427,
   18.3052,       424,
   18.3256,       440,
   18.3461,       423,
   18.3665,       399,
    18.387,       402,
   18.4074,       410,
   18.4279,       431,
   18.4483,       382,
   18.4687,       410,
   18.4892,       397,
   18.5096,       420,
   18.5301,       428,
   18.5505,       408,
    18.571,       419,
   18.5914,       429,
   18.6119,       413,
   18.6323,       396,
   18.6528,       399,
   18.6732,       395,
   18.6937,       371,
   18.7141,       394,
   18.7346,       380,
    18.755,       377,
   18.7754,       372,
   18.7959,       346,
   18.8163,       376,
   18.8368,       371,
   18.8572,       375,
   18.8777,       347,
   18.8981,       370,
   18.9186,       386,
    18.939,       374,
   18.9595,       392,
   18.9799,       403,
   19.0004,       381,
   19.0208,       390,
   19.0413,       390,
   19.0617,       385,
   19.0821,       400,
   19.1026,       408,
    19.123,       424,
   19.1435,       431,
   19.1639,       394,
   19.1844,       414,
   19.2048,       432,
   19.2253,       387,
   19.2457,       428,
   19.2662,       414,
   19.2866,       420,
   19.3071,       410,
   19.3275,       435,
    19.348,       439,
   19.3684,       508,
   19.3888,       470,
   19.4093,       462,
   19.4297,       542,
   19.4502,       535,
   19.4706,       558,
   19.4911,       584,
   19.5115,       654,
    19.532,       845,
   19.5524,      1136,
   19.5729,      1617,
   19.5933,      2167,
   19.6138,      2507,
   19.6342,      2533,
   19.6547,      2312,
   19.6751,      2207,
   19.6956,      2095,
    19.716,      1989,
   19.7364,      1795,
   19.7569,      1752,
   19.7773,      1499,
   19.7978,      1368,
   19.8182,      1212,
   19.8387,      1080,
   19.8591,      1090,
   19.8796,      1028,
      19.9,      1121,
   19.9205,      1070,
   19.9409,      1139,
   19.9614,      1127,
   19.9818,      1070,
   20.0023,      1002,
   20.0227,       956,
   20.0431,       898,
   20.0636,       833,
    20.084,       768,
   20.1045,       743,
   20.1249,       640,
   20.1454,       635,
   20.1658,       595,
   20.1863,       505,
   20.2067,       503,
   20.2272,       504,
   20.2476,       478,
   20.2681,       448,
   20.2885,       441,
    20.309,       445,
   20.3294,       446,
   20.3498,       422,
   20.3703,       421,
   20.3907,       389,
   20.4112,       388,
   20.4316,       367,
   20.4521,       418,
   20.4725,       384,
    20.493,       399,
   20.5134,       439,
   20.5339,       524,
   20.5543,       661,
   20.5748,       879,
   20.5952,      1018,
   20.6157,      1012,
   20.6361,      1029,
   20.6565,       841,
    20.677,       725,
   20.6974,       780,
   20.7179,       771,
   20.7383,       779,
   20.7588,       704,
   20.7792,       622,
   20.7997,       556,
   20.8201,       440,
   20.8406,       400,
    20.861,       385,
   20.8815,       422,
   20.9019,       388,
   20.9224,       390,
   20.9428,       374,
   20.9633,       412,
   20.9837,       368,
   21.0041,       384,
   21.0246,       405,
    21.045,       402,
   21.0655,       402,
   21.0859,       390,
   21.1064,       414,
   21.1268,       454,
   21.1473,       419,
   21.1677,       416,
   21.1882,       459,
   21.2086,       488,
   21.2291,       542,
   21.2495,       627,
     21.27,       748,
   21.2904,       986,
   21.3108,      1115,
   21.3313,      1235,
   21.3517,      1246,
   21.3722,      1298,
   21.3926,      1287,
   21.4131,      1529,
   21.4335,      1894,
    21.454,      2511,
   21.4744,      3041,
   21.4949,      3032,
   21.5153,      3066,
   21.5358,      2646,
   21.5562,      2314,
   21.5767,      2117,
   21.5971,      2038,
   21.6175,      1927,
    21.638,      1757,
   21.6584,      1649,
   21.6789,      1344,
   21.6993,      1115,
   21.7198,       890,
   21.7402,       725,
   21.7607,       614,
   21.7811,       597,
   21.8016,       665,
    21.822,       780,
   21.8425,      1040,
   21.8629,      1416,
   21.8834,      2164,
   21.9038,      2654,
   21.9242,      2943,
   21.9447,      2870,
   21.9651,      2648,
   21.9856,      2322,
    22.006,      2137,
   22.0265,      2088,
   22.0469,      1941,
   22.0674,      2000,
   22.0878,      1797,
   22.1083,      1542,
   22.1287,      1300,
   22.1492,      1172,
   22.1696,       939,
   22.1901,       786,
   22.2105,       705,
    22.231,       734,
   22.2514,       722,
   22.2718,       685,
   22.2923,       698,
   22.3127,       654,
   22.3332,       611,
   22.3536,       615,
   22.3741,       622,
   22.3945,       613,
    22.415,       609,
   22.4354,       640,
   22.4559,       652,
   22.4763,       725,
   22.4968,       800,
   22.5172,       804,
   22.5377,       885,
   22.5581,       917,
   22.5785,       913,
    22.599,      1006,
   22.6194,       972,
   22.6399,       964,
   22.6603,       887,
   22.6808,       888,
   22.7012,       783,
   22.7217,       822,
   22.7421,       759,
   22.7626,       695,
    22.783,       642,
   22.8035,       619,
   22.8239,       567,
   22.8444,       522,
   22.8648,       497,
   22.8852,       518,
   22.9057,       477,
   22.9261,       493,
   22.9466,       473,
    22.967,       440,
   22.9875,       424,
   23.0079,       414,
   23.0284,       399,
   23.0488,       427,
   23.0693,       380,
   23.0897,       439,
   23.1102,       437,
   23.1306,       446,
   23.1511,       405,
   23.1715,       399,
   23.1919,       386,
   23.2124,       390,
   23.2328,       400,
   23.2533,       374,
   23.2737,       366,
   23.2942,       369,
   23.3146,       402,
   23.3351,       357,
   23.3555,       385,
    23.376,       370,
   23.3964,       379,
   23.4169,       383,
   23.4373,       350,
   23.4578,       389,
   23.4782,       376,
   23.4986,       347,
   23.5191,       366,
   23.5395,       371,
     23.56,       371,
   23.5804,       366,
   23.6009,       386,
   23.6213,       402,
   23.6418,       359,
   23.6622,       365,
   23.6827,       357,
   23.7031,       393,
   23.7236,       404,
    23.744,       395,
   23.7645,       358,
   23.7849,       393,
   23.8054,       405,
   23.8258,       355,
   23.8462,       397,
   23.8667,       391,
   23.8871,       402,
   23.9076,       359,
    23.928,       359,
   23.9485,       381,
   23.9689,       362,
   23.9894,       375,
   24.0098,       397,
   24.0303,       379,
   24.0507,       353,
   24.0712,       414,
   24.0916,       404,
   24.1121,       391,
   24.1325,       414,
   24.1529,       451,
   24.1734,       430,
   24.1938,       393,
   24.2143,       461,
   24.2347,       404,
   24.2552,       424,
   24.2756,       432,
   24.2961,       414,
   24.3165,       427,
    24.337,       387,
   24.3574,       385,
   24.3779,       402,
   24.3983,       353,
   24.4188,       422,
   24.4392,       407,
   24.4596,       405,
   24.4801,       427,
   24.5005,       401,
    24.521,       441,
   24.5414,       379,
   24.5619,       418,
   24.5823,       428,
   24.6028,       444,
   24.6232,       446,
   24.6437,       429,
   24.6641,       465,
   24.6846,       427,
    24.705,       440,
   24.7255,       419,
   24.7459,       434,
   24.7663,       443,
   24.7868,       474,
   24.8072,       475,
   24.8277,       511,
   24.8481,       495,
   24.8686,       520,
    24.889,       546,
   24.9095,       543,
   24.9299,       575,
   24.9504,       577,
   24.9708,       580,
   24.9913,       571,
   25.0117,       617,
   25.0322,       612,
   25.0526,       635,
   25.0731,       622,
   25.0935,       650,
   25.1139,       623,
   25.1344,       601,
   25.1548,       655,
   25.1753,       608,
   25.1957,       631,
   25.2162,       702,
   25.2366,       707,
   25.2571,       852,
   25.2775,      1053,
    25.298,       998,
   25.3184,      1012,
   25.3389,       982,
   25.3593,       958,
   25.3798,       843,
   25.4002,       780,
   25.4206,       843,
   25.4411,       808,
   25.4615,       818,
    25.482,       771,
   25.5024,       702,
   25.5229,       702,
   25.5433,       652,
   25.5638,       667,
   25.5842,       742,
   25.6047,       909,
   25.6251,      1161,
   25.6456,      1312,
    25.666,      1460,
   25.6865,      1478,
   25.7069,      1418,
   25.7273,      1260,
   25.7478,      1043,
   25.7682,      1008,
   25.7887,      1012,
   25.8091,      1046,
   25.8296,      1050,
     25.85,      1015,
   25.8705,       957,
   25.8909,       819,
   25.9114,       749,
   25.9318,       671,
   25.9523,       652,
   25.9727,       638,
   25.9932,       597,
   26.0136,       579,
    26.034,       495,
   26.0545,       520,
   26.0749,       503,
   26.0954,       504,
   26.1158,       490,
   26.1363,       514,
   26.1567,       514,
   26.1772,       453,
   26.1976,       467,
   26.2181,       508,
   26.2385,       485,
    26.259,       505,
   26.2794,       462,
   26.2999,       492,
   26.3203,       439,
   26.3408,       459,
   26.3612,       443,
   26.3816,       476,
   26.4021,       508,
   26.4225,       437,
    26.443,       480,
   26.4634,       460,
   26.4839,       481,
   26.5043,       462,
   26.5248,       472,
   26.5452,       467,
   26.5657,       496,
   26.5861,       395,
   26.6066,       455,
    26.627,       481,
   26.6475,       480,
   26.6679,       514,
   26.6883,       507,
   26.7088,       497,
   26.7292,       440,
   26.7497,       526,
   26.7701,       476,
   26.7906,       471,
    26.811,       479,
   26.8315,       507,
   26.8519,       478,
   26.8724,       490,
   26.8928,       530,
   26.9133,       565,
   26.9337,       660,
   26.9542,       712,
   26.9746,       856,
    26.995,       964,
   27.0155,      1083,
   27.0359,      1039,
   27.0564,      1028,
   27.0768,       921,
   27.0973,       939,
   27.1177,       937,
   27.1382,       982,
   27.1586,      1088,
   27.1791,      1070,
   27.1995,       965,
     27.22,       885,
   27.2404,       951,
   27.2609,       912,
   27.2813,       959,
   27.3017,       934,
   27.3222,       877,
   27.3426,       833,
   27.3631,       755,
   27.3835,       682,
    27.404,       667,
   27.4244,       621,
   27.4449,       623,
   27.4653,       622,
   27.4858,       601,
   27.5062,       598,
   27.5267,       534,
   27.5471,       518,
   27.5676,       465,
    27.588,       522,
   27.6084,       506,
   27.6289,       441,
   27.6493,       481,
   27.6698,       460,
   27.6902,       475,
   27.7107,       480,
   27.7311,       442,
   27.7516,       456,
    27.772,       451,
   27.7925,       486,
   27.8129,       463,
   27.8334,       458,
   27.8538,       523,
   27.8743,       489,
   27.8947,       526,
   27.9152,       562,
   27.9356,       637,
    27.956,       699,
   27.9765,       699,
   27.9969,       688,
   28.0174,       681,
   28.0378,       648,
   28.0583,       632,
   28.0787,       539,
   28.0992,       590,
   28.1196,       580,
   28.1401,       592,
   28.1605,       594,
    28.181,       569,
   28.2014,       563,
   28.2219,       532,
   28.2423,       523,
   28.2627,       465,
   28.2832,       392,
   28.3036,       438,
   28.3241,       495,
   28.3445,       458,
    28.365,       459,
   28.3854,       458,
   28.4059,       454,
   28.4263,       482,
   28.4468,       451,
   28.4672,       481,
   28.4877,       454,
   28.5081,       470,
   28.5286,       515,
    28.549,       616,
   28.5694,       744,
   28.5899,       905,
   28.6103,       983,
   28.6308,      1102,
   28.6512,      1114,
   28.6717,       998,
   28.6921,       912,
   28.7126,       799,
    28.733,       715,
   28.7535,       722,
   28.7739,       735,
   28.7944,       757,
   28.8148,       806,
   28.8353,       808,
   28.8557,       737,
   28.8761,       656,
   28.8966,       556,
    28.917,       589,
   28.9375,       642,
   28.9579,       699,
   28.9784,       757,
   28.9988,       844,
   29.0193,       804,
   29.0397,       838,
   29.0602,       732,
   29.0806,       643,
   29.1011,       609,
   29.1215,       636,
    29.142,       614,
   29.1624,       697,
   29.1829,       711,
   29.2033,       715,
   29.2237,       687,
   29.2442,       789,
   29.2646,       796,
   29.2851,       683,
   29.3055,       547,
    29.326,       512,
   29.3464,       449,
   29.3669,       485,
   29.3873,       537,
   29.4078,       513,
   29.4282,       527,
   29.4487,       612,
   29.4691,       566,
   29.4896,       489,
     29.51,       468,
   29.5304,       434,
   29.5509,       459,
   29.5713,       448,
   29.5918,       429,
   29.6122,       471,
   29.6327,       440,
   29.6531,       406,
   29.6736,       462,
    29.694,       466,
   29.7145,       452,
   29.7349,       432,
   29.7554,       481,
   29.7758,       448,
   29.7963,       471,
   29.8167,       463,
   29.8371,       450,
   29.8576,       436,
    29.878,       478,
   29.8985,       447,
   29.9189,       537,
   29.9394,       434,
   29.9598,       463,
   29.9803,       489,
   30.0007,       423,
   30.0212,       452,
   30.0416,       447,
   30.0621,       499,
   30.0825,       458,
    30.103,       489,
   30.1234,       514,
   30.1438,       455,
   30.1643,       521,
   30.1847,       504,
   30.2052,       473,
   30.2256,       511,
   30.2461,       512,
   30.2665,       470,
    30.287,       501,
   30.3074,       511,
   30.3279,       518,
   30.3483,       541,
   30.3688,       563,
   30.3892,       575,
   30.4097,       617,
   30.4301,       643,
   30.4506,       603,
    30.471,       565,
   30.4914,       569,
   30.5119,       544,
   30.5323,       540,
   30.5528,       484,
   30.5732,       546,
   30.5937,       557,
   30.6141,       589,
   30.6346,       505,
    30.655,       544,
   30.6755,       532,
   30.6959,       485,
   30.7164,       516,
   30.7368,       493,
   30.7573,       515,
   30.7777,       557,
   30.7981,       552,
   30.8186,       607,
    30.839,       671,
   30.8595,       604,
   30.8799,       623,
   30.9004,       579,
   30.9208,       563,
   30.9413,       566,
   30.9617,       532,
   30.9822,       554,
   31.0026,       570,
   31.0231,       569,
   31.0435,       576,
    31.064,       554,
   31.0844,       586,
   31.1048,       512,
   31.1253,       533,
   31.1457,       481,
   31.1662,       475,
   31.1866,       469,
   31.2071,       502,
   31.2275,       513,
    31.248,       477,
   31.2684,       471,
   31.2889,       459,
   31.3093,       481,
   31.3298,       456,
   31.3502,       476,
   31.3707,       481,
   31.3911,       465,
   31.4115,       482,
    31.432,       497,
   31.4524,       498,
   31.4729,       462,
   31.4933,       469,
   31.5138,       508,
   31.5342,       487,
   31.5547,       481,
   31.5751,       524,
   31.5956,       476,
    31.616,       446,
   31.6365,       521,
   31.6569,       479,
   31.6774,       510,
   31.6978,       518,
   31.7183,       503,
   31.7387,       533,
   31.7591,       487,
   31.7796,       552,
      31.8,       592,
   31.8205,       632,
   31.8409,       746,
   31.8614,       738,
   31.8818,       766,
   31.9023,       760,
   31.9227,       685,
   31.9432,       639,
   31.9636,       595,
   31.9841,       611,
   32.0045,       601,
    32.025,       605,
   32.0454,       680,
   32.0658,       675,
   32.0863,       739,
   32.1067,       643,
   32.1272,       668,
   32.1476,       632,
   32.1681,       636,
   32.1885,       604,
    32.209,       616,
   32.2294,       560,
   32.2499,       546,
   32.2703,       496,
   32.2908,       535,
   32.3112,       488,
   32.3317,       548,
   32.3521,       512,
   32.3725,       491,
    32.393,       484,
   32.4134,       492,
   32.4339,       479,
   32.4543,       471,
   32.4748,       454,
   32.4952,       421,
   32.5157,       437,
   32.5361,       417,
   32.5566,       451,
    32.577,       446,
   32.5975,       444,
   32.6179,       441,
   32.6384,       445,
   32.6588,       459,
   32.6792,       439,
   32.6997,       449,
   32.7201,       437,
   32.7406,       474,
    32.761,       475,
   32.7815,       537,
   32.8019,       523,
   32.8224,       534,
   32.8428,       495,
   32.8633,       461,
   32.8837,       434,
   32.9042,       452,
   32.9246,       478,
   32.9451,       448,
   32.9655,       465,
   32.9859,       439,
   33.0064,       462,
   33.0268,       484,
   33.0473,       466,
   33.0677,       498,
   33.0882,       510,
   33.1086,       486,
   33.1291,       510,
   33.1495,       555,
     33.17,       550,
   33.1904,       564,
   33.2109,       484,
   33.2313,       457,
   33.2518,       461,
   33.2722,       435,
   33.2927,       431,
   33.3131,       439,
   33.3335,       474,
    33.354,       452,
   33.3744,       469,
   33.3949,       459,
   33.4153,       543,
   33.4358,       540,
   33.4562,       600,
   33.4767,       602,
   33.4971,       586,
   33.5176,       602,
    33.538,       515,
   33.5585,       509,
   33.5789,       520,
   33.5994,       461,
   33.6198,       483,
   33.6402,       459,
   33.6607,       496,
   33.6811,       462,
   33.7016,       467,
    33.722,       422,
   33.7425,       436,
   33.7629,       444,
   33.7834,       418,
   33.8038,       402,
   33.8243,       402,
   33.8447,       389,
   33.8652,       400,
   33.8856,       371,
   33.9061,       384,
   33.9265,       429,
   33.9469,       397,
   33.9674,       380,
   33.9878,       397,
   34.0083,       406,
   34.0287,       387,
   34.0492,       399,
   34.0696,       370,
   34.0901,       400,
   34.1105,       359,
    34.131,       394,
   34.1514,       404,
   34.1719,       405,
   34.1923,       397,
   34.2128,       368,
   34.2332,       404,
   34.2536,       393,
   34.2741,       356,
   34.2945,       370,
    34.315,       384,
   34.3354,       400,
   34.3559,       360,
   34.3763,       341,
   34.3968,       369,
   34.4172,       368,
   34.4377,       356,
   34.4581,       405,
   34.4786,       360,
    34.499,       386,
   34.5195,       381,
   34.5399,       365,
   34.5604,       349,
   34.5808,       387,
   34.6012,       387,
   34.6217,       370,
   34.6421,       408,
   34.6626,       360,
    34.683,       363,
   34.7035,       407,
   34.7239,       411,
   34.7444,       400,
   34.7648,       399,
   34.7853,       416,
   34.8057,       367,
   34.8262,       405,
   34.8466,       393,
   34.8671,       404,
   34.8875,       413,
   34.9079,       438,
   34.9284,       427,
   34.9488,       439,
   34.9693,       427,
   34.9897,       401,
   35.0102,       437,
   35.0306,       440,
   35.0511,       495,
   35.0715,       605,
    35.092,       627,
   35.1124,       641,
   35.1329,       580,
   35.1533,       584,
   35.1738,       543,
   35.1942,       512,
   35.2146,       463,
   35.2351,       440,
   35.2555,       463,
    35.276,       462,
   35.2964,       471,
   35.3169,       530,
   35.3373,       522,
   35.3578,       535,
   35.3782,       502,
   35.3987,       484,
   35.4191,       391,
   35.4396,       386,
     35.46,       427,
   35.4805,       402,
   35.5009,       410,
   35.5213,       436,
   35.5418,       388,
   35.5622,       400,
   35.5827,       434,
   35.6031,       418,
   35.6236,       410,
    35.644,       366,
   35.6645,       391,
   35.6849,       417,
   35.7054,       424,
   35.7258,       399,
   35.7463,       391,
   35.7667,       407,
   35.7872,       436,
   35.8076,       460,
   35.8281,       482,
   35.8485,       553,
   35.8689,       640,
   35.8894,       715,
   35.9098,       795,
   35.9303,       760,
   35.9507,       768,
   35.9712,       760,
   35.9916,       745,
   36.0121,       657,
   36.0325,       592,
    36.053,       631,
   36.0734,       542,
   36.0939,       580,
   36.1143,       613,
   36.1348,       616,
   36.1552,       633,
   36.1756,       630,
   36.1961,       628,
   36.2165,       599,
    36.237,       648,
   36.2574,       649,
   36.2779,       643,
   36.2983,       676,
   36.3188,       656,
   36.3392,       587,
   36.3597,       563,
   36.3801,       480,
   36.4006,       531,
    36.421,       483,
   36.4415,       448,
   36.4619,       454,
   36.4823,       478,
   36.5028,       497,
   36.5232,       483,
   36.5437,       489,
   36.5641,       472,
   36.5846,       468,
    36.605,       453,
   36.6255,       393,
   36.6459,       399,
   36.6664,       408,
   36.6868,       372,
   36.7073,       390,
   36.7277,       365,
   36.7482,       383,
   36.7686,       388,
    36.789,       370,
   36.8095,       395,
   36.8299,       391,
   36.8504,       412,
   36.8708,       428,
   36.8913,       418,
   36.9117,       467,
   36.9322,       391,
   36.9526,       370,
   36.9731,       397,
   36.9935,       374,
    37.014,       384,
   37.0344,       391,
   37.0549,       440,
   37.0753,       372,
   37.0957,       371,
   37.1162,       383,
   37.1366,       407,
   37.1571,       412,
   37.1775,       407,
    37.198,       372,
   37.2184,       361,
   37.2389,       384,
   37.2593,       399,
   37.2798,       369,
   37.3002,       381,
   37.3207,       389,
   37.3411,       337,
   37.3616,       371,
    37.382,       366,
   37.4025,       421,
   37.4229,       408,
   37.4433,       381,
   37.4638,       410,
   37.4842,       423,
   37.5047,       426,
   37.5251,       401,
   37.5456,       426,
    37.566,       360,
   37.5865,       428,
   37.6069,       408,
   37.6274,       359,
   37.6478,       378,
   37.6683,       373,
   37.6887,       421,
   37.7092,       390,
   37.7296,       386,
     37.75,       435,
   37.7705,       397,
   37.7909,       376,
   37.8114,       381,
   37.8318,       342,
   37.8523,       362,
   37.8727,       363,
   37.8932,       357,
   37.9136,       345,
   37.9341,       373,
   37.9545,       385,
    37.975,       367,
   37.9954,       359,
   38.0159,       327,
   38.0363,       364,
   38.0567,       384,
   38.0772,       360,
   38.0976,       365,
   38.1181,       337,
   38.1385,       329,
    38.159,       361,
   38.1794,       341,
   38.1999,       357,
   38.2203,       334,
   38.2408,       353,
   38.2612,       360,
   38.2817,       359,
   38.3021,       389,
   38.3226,       377,
    38.343,       353,
   38.3634,       361,
   38.3839,       349,
   38.4043,       348,
   38.4248,       367,
   38.4452,       363,
   38.4657,       381,
   38.4861,       350,
   38.5066,       378,
    38.527,       343,
   38.5475,       352,
   38.5679,       376,
   38.5884,       372,
   38.6088,       323,
   38.6293,       394,
   38.6497,       433,
   38.6702,       365,
   38.6906,       379,
    38.711,       351,
   38.7315,       404,
   38.7519,       373,
   38.7724,       378,
   38.7928,       371,
   38.8133,       327,
   38.8337,       400,
   38.8542,       386,
   38.8746,       399,
   38.8951,       385,
   38.9155,       374,
    38.936,       388,
   38.9564,       398,
   38.9769,       372,
   38.9973,       411,
   39.0177,       371,
   39.0382,       367,
   39.0586,       372,
   39.0791,       393,
   39.0995,       419,
     39.12,       413,
   39.1404,       443,
   39.1609,       448,
   39.1813,       439,
   39.2018,       431,
   39.2222,       387,
   39.2427,       449,
   39.2631,       384,
   39.2836,       411,
    39.304,       402,
   39.3244,       392,
   39.3449,       422,
   39.3653,       419,
   39.3858,       411,
   39.4062,       426,
   39.4267,       417,
   39.4471,       429,
   39.4676,       376,
    39.488,       414,
   39.5085,       395,
   39.5289,       373,
   39.5494,       398,
   39.5698,       430,
   39.5903,       397,
   39.6107,       431,
   39.6311,       435,
   39.6516,       466,
    39.672,       570,
   39.6925,       589,
   39.7129,       672,
   39.7334,       648,
   39.7538,       693,
   39.7743,       765,
   39.7947,       706,
   39.8152,       703,
   39.8356,       668,
   39.8561,       579,
   39.8765,       571,
    39.897,       491,
   39.9174,       542,
   39.9379,       523,
   39.9583,       537,
   39.9787,       542,
   39.9992,       506,
