;RAW4.00
[RawHeader]
Date=01/20/2022
EstimatedTotalTime=1739.24
FurtherDQLReading=0
HardwareIndicator=65519
MeasuredTotalTime=1739.24
MeasurementFlag=1
NumberOfMeasuredRanges=1
NumberOfRanges=1
Time=09:44:04

[VarInfo]
Type=USER
Flags=0
Value=Lab Manager

[VarInfo]
Type=SAMPLEID
Flags=0
Value=

[VarInfo]
Type=COMMENT
Flags=0
Value=

[VarInfo]
Type=UTF
Flags=0
Value=

[VarInfo]
Type=CREATOR
Flags=0
Value=BrmlToV4Converter

[VarInfo]
Type=CREATOR_VERSION
Flags=0
Value=7.3.1.0

[HardwareConfiguration]
AbsorptionFactor=9999
ActivateAbsorber=0
Alpha1=0.7093
Alpha2=0.71359
AlphaAverage=0.71073
AlphaRatio=0.5
Analyzer=0
Anode=Mo
AntiScatteringSlit=18
BeamOpticsFlags=0
Beta=0.63229
BetaRelativeIntensity=0
DeactivateAbsorber=0
DetectorSlit=9999
DivergenceSlit=0.2
GoniometerControl=0
GoniometerDiameter=560
GoniometerModel=512
GoniometerStage=7
Monochromator=0
NearSampleSlit=9999
PrimarySollerSlit=2.5
SampleChanger=0
SecondSollerSlit=9999
SynchronousAxis=0
ThinFilmAttachment=9999
WaveUnit=A

[RangeHeader]
ActuallyUsedLambda=0.71073
AdditionalDetectorMask=257
DataRecordLength=4
DelayTime=0
DisplayPlaneNumber=0
EstimatedScanTime=1739
ExtraParametersMask=0
GeneratorCurrent=40
GeneratorVoltage=50
Increment=0.0204468
Increment3=0
NumberOfCompletedData=1566
NumberOfCounts=1
NumberOfDetectors=0
NumberOfDrives=2
NumberOfEncoderDrives=0
NumberOfMeasuredData=1566
NumberOfVaryingParameters=0
RangeStartTime=0
RotationSpeed=60
ScanMode=1
ScanType=Locked Coupled
SimulatedMeasConditions=0
SlitChangerIn=0
SmootingWidth=0
Start=8
Steps=1566
SynchronousRotation=0
Time=192

[VarInfo]
Type=PSD_DISCRIM
Flags=0
Value=0.488;0.518

[PSD]
ActualTwoTheta=9999
FirstUsedChannel=0
FixedPSD=0
PSDOpening=2.94433
PSDType=5

[Drive]
DriveFlags=1
DriveName=2Theta
DriveNumber=2
DriveOffset=0
OffsetIndex=0
OscillationAmplitude=0
OscillationSpeed=0
StartPosition=8

[Drive]
DriveFlags=1
DriveName=Theta
DriveNumber=1
DriveOffset=0
OffsetIndex=0
OscillationAmplitude=0
OscillationSpeed=0
StartPosition=4

[Data]
     Angle,       PSD,
         8,       467,
   8.02045,       476,
   8.04089,       505,
   8.06134,       456,
   8.08179,       507,
   8.10223,       424,
   8.12268,       521,
   8.14313,       472,
   8.16357,       433,
   8.18402,       432,
   8.20447,       469,
   8.22491,       443,
   8.24536,       446,
   8.26581,       447,
   8.28625,       415,
    8.3067,       415,
   8.32715,       434,
    8.3476,       417,
   8.36804,       425,
   8.38849,       420,
   8.40894,       423,
   8.42938,       389,
   8.44983,       422,
   8.47028,       411,
   8.49072,       406,
   8.51117,       378,
   8.53162,       393,
   8.55206,       450,
   8.57251,       397,
   8.59296,       417,
    8.6134,       400,
   8.63385,       436,
    8.6543,       394,
   8.67474,       380,
   8.69519,       360,
   8.71564,       359,
   8.73608,       389,
   8.75653,       405,
   8.77698,       385,
   8.79742,       385,
   8.81787,       356,
   8.83832,       390,
   8.85876,       381,
   8.87921,       379,
   8.89966,       392,
    8.9201,       372,
   8.94055,       383,
     8.961,       379,
   8.98144,       349,
   9.00189,       363,
   9.02234,       333,
   9.04279,       321,
   9.06323,       361,
   9.08368,       338,
   9.10413,       352,
   9.12457,       347,
   9.14502,       335,
   9.16547,       315,
   9.18591,       327,
   9.20636,       330,
   9.22681,       350,
   9.24725,       319,
    9.2677,       325,
   9.28815,       343,
   9.30859,       332,
   9.32904,       316,
   9.34949,       332,
   9.36993,       316,
   9.39038,       306,
   9.41083,       302,
   9.43127,       290,
   9.45172,       327,
   9.47217,       330,
   9.49261,       348,
   9.51306,       314,
   9.53351,       346,
   9.55395,       323,
    9.5744,       312,
   9.59485,       304,
   9.61529,       279,
   9.63574,       312,
   9.65619,       282,
   9.67663,       319,
   9.69708,       327,
   9.71753,       306,
   9.73798,       304,
   9.75842,       323,
   9.77887,       309,
   9.79932,       317,
   9.81976,       311,
   9.84021,       280,
   9.86066,       305,
    9.8811,       263,
   9.90155,       307,
     9.922,       276,
   9.94244,       275,
   9.96289,       280,
   9.98334,       286,
   10.0038,       307,
   10.0242,       289,
   10.0447,       291,
   10.0651,       315,
   10.0856,       275,
    10.106,       292,
   10.1265,       284,
   10.1469,       296,
   10.1674,       270,
   10.1878,       272,
   10.2083,       284,
   10.2287,       293,
   10.2491,       295,
   10.2696,       300,
     10.29,       287,
   10.3105,       305,
   10.3309,       282,
   10.3514,       291,
   10.3718,       285,
   10.3923,       311,
   10.4127,       313,
   10.4332,       338,
   10.4536,       334,
   10.4741,       345,
   10.4945,       376,
    10.515,       385,
   10.5354,       437,
   10.5558,       513,
   10.5763,       613,
   10.5967,       781,
   10.6172,      1050,
   10.6376,      1441,
   10.6581,      1856,
   10.6785,      2135,
    10.699,      2174,
   10.7194,      2095,
   10.7399,      1870,
   10.7603,      1537,
   10.7808,      1244,
   10.8012,       892,
   10.8217,       684,
   10.8421,       529,
   10.8625,       394,
    10.883,       377,
   10.9034,       339,
   10.9239,       317,
   10.9443,       322,
   10.9648,       297,
   10.9852,       257,
   11.0057,       300,
   11.0261,       278,
   11.0466,       289,
    11.067,       288,
   11.0875,       263,
   11.1079,       259,
   11.1284,       254,
   11.1488,       262,
   11.1692,       240,
   11.1897,       234,
   11.2101,       259,
   11.2306,       265,
    11.251,       273,
   11.2715,       272,
   11.2919,       247,
   11.3124,       266,
   11.3328,       232,
   11.3533,       235,
   11.3737,       254,
   11.3942,       247,
   11.4146,       243,
   11.4351,       239,
   11.4555,       250,
    11.476,       261,
   11.4964,       281,
   11.5168,       272,
   11.5373,       273,
   11.5577,       241,
   11.5782,       255,
   11.5986,       259,
   11.6191,       260,
   11.6395,       247,
     11.66,       243,
   11.6804,       268,
   11.7009,       241,
   11.7213,       251,
   11.7418,       265,
   11.7622,       251,
   11.7827,       243,
   11.8031,       259,
   11.8235,       261,
    11.844,       256,
   11.8644,       294,
   11.8849,       279,
   11.9053,       309,
   11.9258,       254,
   11.9462,       273,
   11.9667,       261,
   11.9871,       303,
   12.0076,       349,
    12.028,       356,
   12.0485,       450,
   12.0689,       494,
   12.0894,       468,
   12.1098,       458,
   12.1302,       448,
   12.1507,       397,
   12.1711,       319,
   12.1916,       271,
    12.212,       297,
   12.2325,       283,
   12.2529,       271,
   12.2734,       278,
   12.2938,       290,
   12.3143,       308,
   12.3347,       252,
   12.3552,       284,
   12.3756,       272,
   12.3961,       291,
   12.4165,       296,
   12.4369,       302,
   12.4574,       298,
   12.4778,       327,
   12.4983,       330,
   12.5187,       303,
   12.5392,       300,
   12.5596,       342,
   12.5801,       373,
   12.6005,       411,
    12.621,       475,
   12.6414,       524,
   12.6619,       440,
   12.6823,       417,
   12.7028,       409,
   12.7232,       385,
   12.7437,       344,
   12.7641,       358,
   12.7845,       285,
    12.805,       305,
   12.8254,       296,
   12.8459,       322,
   12.8663,       345,
   12.8868,       301,
   12.9072,       340,
   12.9277,       344,
   12.9481,       361,
   12.9686,       359,
    12.989,       395,
   13.0095,       394,
   13.0299,       394,
   13.0504,       435,
   13.0708,       437,
   13.0912,       462,
   13.1117,       487,
   13.1321,       457,
   13.1526,       534,
    13.173,       568,
   13.1935,       530,
   13.2139,       661,
   13.2344,       618,
   13.2548,       642,
   13.2753,       701,
   13.2957,       768,
   13.3162,       771,
   13.3366,       844,
   13.3571,       978,
   13.3775,      1171,
   13.3979,      1530,
   13.4184,      2074,
   13.4388,      3013,
   13.4593,      4730,
   13.4797,      7842,
   13.5002,     12628,
   13.5206,     16860,
   13.5411,     18766,
   13.5615,     19339,
    13.582,     18995,
   13.6024,     17886,
   13.6229,     15439,
   13.6433,     12211,
   13.6638,      9291,
   13.6842,      6585,
   13.7046,      4598,
   13.7251,      3013,
   13.7455,      1987,
    13.766,      1325,
   13.7864,      1010,
   13.8069,       853,
   13.8273,       744,
   13.8478,       688,
   13.8682,       697,
   13.8887,       629,
   13.9091,       568,
   13.9296,       564,
     13.95,       579,
   13.9705,       522,
   13.9909,       493,
   14.0113,       488,
   14.0318,       437,
   14.0522,       435,
   14.0727,       407,
   14.0931,       402,
   14.1136,       402,
    14.134,       380,
   14.1545,       356,
   14.1749,       341,
   14.1954,       294,
   14.2158,       342,
   14.2363,       304,
   14.2567,       321,
   14.2772,       308,
   14.2976,       323,
   14.3181,       324,
   14.3385,       340,
   14.3589,       351,
   14.3794,       409,
   14.3998,       520,
   14.4203,       616,
   14.4407,       653,
   14.4612,       740,
   14.4816,       850,
   14.5021,       972,
   14.5225,      1178,
    14.543,      1329,
   14.5634,      1289,
   14.5839,      1159,
   14.6043,      1133,
   14.6248,      1145,
   14.6452,      1035,
   14.6656,       871,
   14.6861,       702,
   14.7065,       609,
    14.727,       513,
   14.7474,       473,
   14.7679,       354,
   14.7883,       312,
   14.8088,       275,
   14.8292,       277,
   14.8497,       277,
   14.8701,       266,
   14.8906,       267,
    14.911,       240,
   14.9315,       263,
   14.9519,       289,
   14.9723,       287,
   14.9928,       283,
   15.0132,       280,
   15.0337,       242,
   15.0541,       278,
   15.0746,       256,
    15.095,       261,
   15.1155,       286,
   15.1359,       289,
   15.1564,       262,
   15.1768,       261,
   15.1973,       257,
   15.2177,       240,
   15.2382,       224,
   15.2586,       231,
    15.279,       237,
   15.2995,       223,
   15.3199,       248,
   15.3404,       241,
   15.3608,       227,
   15.3813,       241,
   15.4017,       222,
   15.4222,       255,
   15.4426,       235,
   15.4631,       244,
   15.4835,       246,
    15.504,       250,
   15.5244,       205,
   15.5449,       241,
   15.5653,       239,
   15.5858,       260,
   15.6062,       253,
   15.6266,       212,
   15.6471,       259,
   15.6675,       251,
    15.688,       242,
   15.7084,       237,
   15.7289,       271,
   15.7493,       231,
   15.7698,       272,
   15.7902,       215,
   15.8107,       268,
   15.8311,       258,
   15.8516,       241,
    15.872,       229,
   15.8925,       237,
   15.9129,       257,
   15.9333,       261,
   15.9538,       274,
   15.9742,       286,
   15.9947,       273,
   16.0151,       345,
   16.0356,       347,
    16.056,       345,
   16.0765,       309,
   16.0969,       282,
   16.1174,       313,
   16.1378,       256,
   16.1583,       299,
   16.1787,       310,
   16.1992,       318,
   16.2196,       273,
     16.24,       299,
   16.2605,       268,
   16.2809,       320,
   16.3014,       326,
   16.3218,       368,
   16.3423,       433,
   16.3627,       512,
   16.3832,       630,
   16.4036,       963,
   16.4241,      1521,
   16.4445,      2067,
    16.465,      2375,
   16.4854,      2490,
   16.5059,      2257,
   16.5263,      2258,
   16.5467,      2181,
   16.5672,      1893,
   16.5876,      1677,
   16.6081,      1290,
   16.6285,      1036,
    16.649,       809,
   16.6694,       647,
   16.6899,       469,
   16.7103,       370,
   16.7308,       354,
   16.7512,       320,
   16.7717,       309,
   16.7921,       289,
   16.8126,       320,
    16.833,       293,
   16.8535,       287,
   16.8739,       299,
   16.8943,       294,
   16.9148,       293,
   16.9352,       269,
   16.9557,       296,
   16.9761,       275,
   16.9966,       270,
    17.017,       277,
   17.0375,       251,
   17.0579,       276,
   17.0784,       262,
   17.0988,       261,
   17.1193,       295,
   17.1397,       285,
   17.1602,       271,
   17.1806,       299,
    17.201,       282,
   17.2215,       278,
   17.2419,       257,
   17.2624,       291,
   17.2828,       269,
   17.3033,       288,
   17.3237,       266,
   17.3442,       295,
   17.3646,       284,
   17.3851,       308,
   17.4055,       293,
    17.426,       286,
   17.4464,       285,
   17.4669,       335,
   17.4873,       332,
   17.5077,       350,
   17.5282,       329,
   17.5486,       325,
   17.5691,       316,
   17.5895,       300,
     17.61,       299,
   17.6304,       322,
   17.6509,       344,
   17.6713,       297,
   17.6918,       310,
   17.7122,       337,
   17.7327,       332,
   17.7531,       345,
   17.7736,       357,
    17.794,       334,
   17.8144,       370,
   17.8349,       422,
   17.8553,       452,
   17.8758,       578,
   17.8962,       822,
   17.9167,      1319,
   17.9371,      2042,
   17.9576,      2876,
    17.978,      3332,
   17.9985,      3437,
   18.0189,      3362,
   18.0394,      3208,
   18.0598,      3091,
   18.0803,      2820,
   18.1007,      2461,
   18.1211,      2034,
   18.1416,      1628,
    18.162,      1298,
   18.1825,      1034,
   18.2029,       724,
   18.2234,       532,
   18.2438,       456,
   18.2643,       371,
   18.2847,       353,
   18.3052,       343,
   18.3256,       349,
   18.3461,       341,
   18.3665,       345,
    18.387,       332,
   18.4074,       326,
   18.4279,       365,
   18.4483,       318,
   18.4687,       298,
   18.4892,       331,
   18.5096,       316,
   18.5301,       281,
   18.5505,       304,
    18.571,       328,
   18.5914,       293,
   18.6119,       298,
   18.6323,       287,
   18.6528,       273,
   18.6732,       311,
   18.6937,       262,
   18.7141,       294,
   18.7346,       270,
    18.755,       294,
   18.7754,       257,
   18.7959,       285,
   18.8163,       316,
   18.8368,       295,
   18.8572,       301,
   18.8777,       286,
   18.8981,       281,
   18.9186,       271,
    18.939,       313,
   18.9595,       283,
   18.9799,       316,
   19.0004,       319,
   19.0208,       305,
   19.0413,       315,
   19.0617,       323,
   19.0821,       316,
   19.1026,       345,
    19.123,       351,
   19.1435,       373,
   19.1639,       357,
   19.1844,       379,
   19.2048,       335,
   19.2253,       326,
   19.2457,       378,
   19.2662,       333,
   19.2866,       332,
   19.3071,       321,
   19.3275,       350,
    19.348,       343,
   19.3684,       348,
   19.3888,       344,
   19.4093,       348,
   19.4297,       358,
   19.4502,       409,
   19.4706,       435,
   19.4911,       444,
   19.5115,       564,
    19.532,       720,
   19.5524,      1017,
   19.5729,      1644,
   19.5933,      2311,
   19.6138,      2750,
   19.6342,      2882,
   19.6547,      2657,
   19.6751,      2493,
   19.6956,      2451,
    19.716,      2325,
   19.7364,      2182,
   19.7569,      1798,
   19.7773,      1519,
   19.7978,      1323,
   19.8182,       992,
   19.8387,       775,
   19.8591,       637,
   19.8796,       519,
      19.9,       445,
   19.9205,       443,
   19.9409,       378,
   19.9614,       345,
   19.9818,       378,
   20.0023,       356,
   20.0227,       361,
   20.0431,       319,
   20.0636,       358,
    20.084,       337,
   20.1045,       352,
   20.1249,       376,
   20.1454,       351,
   20.1658,       348,
   20.1863,       355,
   20.2067,       320,
   20.2272,       368,
   20.2476,       345,
   20.2681,       372,
   20.2885,       355,
    20.309,       373,
   20.3294,       334,
   20.3498,       349,
   20.3703,       376,
   20.3907,       329,
   20.4112,       345,
   20.4316,       350,
   20.4521,       341,
   20.4725,       388,
    20.493,       379,
   20.5134,       412,
   20.5339,       451,
   20.5543,       556,
   20.5748,       790,
   20.5952,      1002,
   20.6157,      1030,
   20.6361,      1253,
   20.6565,      1919,
    20.677,      2790,
   20.6974,      2123,
   20.7179,      1149,
   20.7383,       915,
   20.7588,       848,
   20.7792,      1172,
   20.7997,      1545,
   20.8201,      1282,
   20.8406,       666,
    20.861,       503,
   20.8815,       432,
   20.9019,       441,
   20.9224,       397,
   20.9428,       407,
   20.9633,       370,
   20.9837,       387,
   21.0041,       370,
   21.0246,       394,
    21.045,       455,
   21.0655,       412,
   21.0859,       423,
   21.1064,       471,
   21.1268,       395,
   21.1473,       410,
   21.1677,       417,
   21.1882,       461,
   21.2086,       497,
   21.2291,       544,
   21.2495,       615,
     21.27,       806,
   21.2904,      1047,
   21.3108,      1215,
   21.3313,      1381,
   21.3517,      1323,
   21.3722,      1433,
   21.3926,      1515,
   21.4131,      1723,
   21.4335,      2224,
    21.454,      2819,
   21.4744,      3486,
   21.4949,      3720,
   21.5153,      3561,
   21.5358,      3367,
   21.5562,      2971,
   21.5767,      2729,
   21.5971,      2612,
   21.6175,      2411,
    21.638,      2139,
   21.6584,      1948,
   21.6789,      1647,
   21.6993,      1289,
   21.7198,      1140,
   21.7402,       892,
   21.7607,       773,
   21.7811,       656,
   21.8016,       688,
    21.822,       865,
   21.8425,      1090,
   21.8629,      1633,
   21.8834,      2316,
   21.9038,      3032,
   21.9242,      3325,
   21.9447,      3256,
   21.9651,      3069,
   21.9856,      2801,
    22.006,      2621,
   22.0265,      2497,
   22.0469,      2415,
   22.0674,      2202,
   22.0878,      1914,
   22.1083,      1692,
   22.1287,      1286,
   22.1492,      1067,
   22.1696,       861,
   22.1901,       629,
   22.2105,       514,
    22.231,       480,
   22.2514,       441,
   22.2718,       425,
   22.2923,       403,
   22.3127,       414,
   22.3332,       381,
   22.3536,       386,
   22.3741,       417,
   22.3945,       379,
    22.415,       370,
   22.4354,       365,
   22.4559,       349,
   22.4763,       392,
   22.4968,       406,
   22.5172,       397,
   22.5377,       411,
   22.5581,       395,
   22.5785,       398,
    22.599,       383,
   22.6194,       336,
   22.6399,       378,
   22.6603,       357,
   22.6808,       347,
   22.7012,       312,
   22.7217,       338,
   22.7421,       356,
   22.7626,       369,
    22.783,       369,
   22.8035,       354,
   22.8239,       378,
   22.8444,       360,
   22.8648,       358,
   22.8852,       339,
   22.9057,       351,
   22.9261,       326,
   22.9466,       348,
    22.967,       332,
   22.9875,       317,
   23.0079,       330,
   23.0284,       324,
   23.0488,       323,
   23.0693,       344,
   23.0897,       322,
   23.1102,       303,
   23.1306,       298,
   23.1511,       337,
   23.1715,       311,
   23.1919,       291,
   23.2124,       328,
   23.2328,       323,
   23.2533,       317,
   23.2737,       319,
   23.2942,       335,
   23.3146,       321,
   23.3351,       313,
   23.3555,       343,
    23.376,       309,
   23.3964,       356,
   23.4169,       323,
   23.4373,       325,
   23.4578,       350,
   23.4782,       329,
   23.4986,       294,
   23.5191,       358,
   23.5395,       329,
     23.56,       329,
   23.5804,       304,
   23.6009,       329,
   23.6213,       352,
   23.6418,       355,
   23.6622,       341,
   23.6827,       328,
   23.7031,       350,
   23.7236,       345,
    23.744,       330,
   23.7645,       346,
   23.7849,       336,
   23.8054,       326,
   23.8258,       342,
   23.8462,       319,
   23.8667,       336,
   23.8871,       328,
   23.9076,       351,
    23.928,       346,
   23.9485,       345,
   23.9689,       322,
   23.9894,       343,
   24.0098,       346,
   24.0303,       372,
   24.0507,       352,
   24.0712,       380,
   24.0916,       344,
   24.1121,       367,
   24.1325,       355,
   24.1529,       331,
   24.1734,       404,
   24.1938,       357,
   24.2143,       409,
   24.2347,       366,
   24.2552,       385,
   24.2756,       434,
   24.2961,       416,
   24.3165,       367,
    24.337,       396,
   24.3574,       347,
   24.3779,       345,
   24.3983,       386,
   24.4188,       378,
   24.4392,       353,
   24.4596,       371,
   24.4801,       358,
   24.5005,       354,
    24.521,       374,
   24.5414,       414,
   24.5619,       374,
   24.5823,       377,
   24.6028,       373,
   24.6232,       362,
   24.6437,       378,
   24.6641,       364,
   24.6846,       386,
    24.705,       385,
   24.7255,       401,
   24.7459,       362,
   24.7663,       393,
   24.7868,       389,
   24.8072,       390,
   24.8277,       401,
   24.8481,       379,
   24.8686,       391,
    24.889,       385,
   24.9095,       415,
   24.9299,       413,
   24.9504,       426,
   24.9708,       399,
   24.9913,       407,
   25.0117,       362,
   25.0322,       395,
   25.0526,       389,
   25.0731,       404,
   25.0935,       398,
   25.1139,       417,
   25.1344,       448,
   25.1548,       462,
   25.1753,       411,
   25.1957,       427,
   25.2162,       470,
   25.2366,       566,
   25.2571,       686,
   25.2775,       875,
    25.298,       995,
   25.3184,      1042,
   25.3389,       955,
   25.3593,       920,
   25.3798,       879,
   25.4002,       927,
   25.4206,       793,
   25.4411,       839,
   25.4615,       824,
    25.482,       777,
   25.5024,       800,
   25.5229,       724,
   25.5433,       689,
   25.5638,       722,
   25.5842,       719,
   25.6047,       913,
   25.6251,      1191,
   25.6456,      1524,
    25.666,      1685,
   25.6865,      1690,
   25.7069,      1577,
   25.7273,      1437,
   25.7478,      1350,
   25.7682,      1165,
   25.7887,      1177,
   25.8091,      1203,
   25.8296,      1133,
     25.85,      1079,
   25.8705,       976,
   25.8909,       954,
   25.9114,       899,
   25.9318,       766,
   25.9523,       711,
   25.9727,       657,
   25.9932,       601,
   26.0136,       599,
    26.034,       532,
   26.0545,       517,
   26.0749,       518,
   26.0954,       532,
   26.1158,       579,
   26.1363,       516,
   26.1567,       476,
   26.1772,       488,
   26.1976,       445,
   26.2181,       464,
   26.2385,       414,
    26.259,       398,
   26.2794,       458,
   26.2999,       435,
   26.3203,       402,
   26.3408,       459,
   26.3612,       437,
   26.3816,       450,
   26.4021,       468,
   26.4225,       380,
    26.443,       411,
   26.4634,       431,
   26.4839,       474,
   26.5043,       439,
   26.5248,       441,
   26.5452,       450,
   26.5657,       446,
   26.5861,       442,
   26.6066,       466,
    26.627,       444,
   26.6475,       418,
   26.6679,       443,
   26.6883,       444,
   26.7088,       453,
   26.7292,       430,
   26.7497,       467,
   26.7701,       458,
   26.7906,       434,
    26.811,       438,
   26.8315,       424,
   26.8519,       483,
   26.8724,       443,
   26.8928,       489,
   26.9133,       507,
   26.9337,       570,
   26.9542,       739,
   26.9746,       957,
    26.995,      1084,
   27.0155,      1196,
   27.0359,      1173,
   27.0564,      1132,
   27.0768,      1058,
   27.0973,      1071,
   27.1177,      1065,
   27.1382,      1185,
   27.1586,      1173,
   27.1791,      1166,
   27.1995,      1126,
     27.22,      1068,
   27.2404,      1029,
   27.2609,      1040,
   27.2813,      1068,
   27.3017,      1065,
   27.3222,       947,
   27.3426,       885,
   27.3631,       806,
   27.3835,       758,
    27.404,       715,
   27.4244,       642,
   27.4449,       637,
   27.4653,       649,
   27.4858,       637,
   27.5062,       584,
   27.5267,       546,
   27.5471,       548,
   27.5676,       536,
    27.588,       453,
   27.6084,       456,
   27.6289,       455,
   27.6493,       437,
   27.6698,       418,
   27.6902,       427,
   27.7107,       438,
   27.7311,       416,
   27.7516,       446,
    27.772,       399,
   27.7925,       438,
   27.8129,       428,
   27.8334,       442,
   27.8538,       420,
   27.8743,       492,
   27.8947,       473,
   27.9152,       499,
   27.9356,       566,
    27.956,       639,
   27.9765,       660,
   27.9969,       693,
   28.0174,       705,
   28.0378,       666,
   28.0583,       621,
   28.0787,       567,
   28.0992,       565,
   28.1196,       541,
   28.1401,       618,
   28.1605,       579,
    28.181,       575,
   28.2014,       536,
   28.2219,       543,
   28.2423,       483,
   28.2627,       481,
   28.2832,       416,
   28.3036,       491,
   28.3241,       464,
   28.3445,       435,
    28.365,       391,
   28.3854,       434,
   28.4059,       458,
   28.4263,       449,
   28.4468,       446,
   28.4672,       477,
   28.4877,       428,
   28.5081,       486,
   28.5286,       531,
    28.549,       597,
   28.5694,       673,
   28.5899,       952,
   28.6103,      1155,
   28.6308,      1225,
   28.6512,      1158,
   28.6717,      1179,
   28.6921,      1040,
   28.7126,       914,
    28.733,       835,
   28.7535,       800,
   28.7739,       807,
   28.7944,       850,
   28.8148,       927,
   28.8353,       857,
   28.8557,       794,
   28.8761,       787,
   28.8966,       681,
    28.917,       598,
   28.9375,       637,
   28.9579,       707,
   28.9784,       786,
   28.9988,       849,
   29.0193,       862,
   29.0397,       887,
   29.0602,       821,
   29.0806,       714,
   29.1011,       632,
   29.1215,       683,
    29.142,       653,
   29.1624,       671,
   29.1829,       693,
   29.2033,       664,
   29.2237,       650,
   29.2442,       677,
   29.2646,       597,
   29.2851,       579,
   29.3055,       505,
    29.326,       496,
   29.3464,       502,
   29.3669,       425,
   29.3873,       433,
   29.4078,       423,
   29.4282,       464,
   29.4487,       449,
   29.4691,       424,
   29.4896,       445,
     29.51,       449,
   29.5304,       423,
   29.5509,       402,
   29.5713,       452,
   29.5918,       426,
   29.6122,       411,
   29.6327,       435,
   29.6531,       459,
   29.6736,       450,
    29.694,       411,
   29.7145,       467,
   29.7349,       460,
   29.7554,       392,
   29.7758,       421,
   29.7963,       487,
   29.8167,       415,
   29.8371,       438,
   29.8576,       385,
    29.878,       421,
   29.8985,       396,
   29.9189,       445,
   29.9394,       429,
   29.9598,       443,
   29.9803,       410,
   30.0007,       430,
   30.0212,       448,
   30.0416,       435,
   30.0621,       436,
   30.0825,       385,
    30.103,       407,
   30.1234,       460,
   30.1438,       440,
   30.1643,       408,
   30.1847,       439,
   30.2052,       446,
   30.2256,       421,
   30.2461,       430,
   30.2665,       432,
    30.287,       445,
   30.3074,       406,
   30.3279,       460,
   30.3483,       498,
   30.3688,       470,
   30.3892,       558,
   30.4097,       573,
   30.4301,       611,
   30.4506,       582,
    30.471,       562,
   30.4914,       545,
   30.5119,       495,
   30.5323,       495,
   30.5528,       461,
   30.5732,       514,
   30.5937,       523,
   30.6141,       463,
   30.6346,       490,
    30.655,       520,
   30.6755,       475,
   30.6959,       460,
   30.7164,       439,
   30.7368,       496,
   30.7573,       516,
   30.7777,       589,
   30.7981,       588,
   30.8186,       653,
    30.839,       642,
   30.8595,       686,
   30.8799,       658,
   30.9004,       596,
   30.9208,       581,
   30.9413,       555,
   30.9617,       540,
   30.9822,       520,
   31.0026,       522,
   31.0231,       533,
   31.0435,       526,
    31.064,       574,
   31.0844,       541,
   31.1048,       506,
   31.1253,       481,
   31.1457,       474,
   31.1662,       472,
   31.1866,       414,
   31.2071,       410,
   31.2275,       458,
    31.248,       431,
   31.2684,       417,
   31.2889,       409,
   31.3093,       405,
   31.3298,       416,
   31.3502,       411,
   31.3707,       411,
   31.3911,       412,
   31.4115,       443,
    31.432,       409,
   31.4524,       420,
   31.4729,       423,
   31.4933,       448,
   31.5138,       371,
   31.5342,       401,
   31.5547,       444,
   31.5751,       438,
   31.5956,       397,
    31.616,       451,
   31.6365,       384,
   31.6569,       410,
   31.6774,       417,
   31.6978,       492,
   31.7183,       458,
   31.7387,       427,
   31.7591,       453,
   31.7796,       524,
      31.8,       500,
   31.8205,       640,
   31.8409,       758,
   31.8614,       766,
   31.8818,       771,
   31.9023,       786,
   31.9227,       687,
   31.9432,       677,
   31.9636,       608,
   31.9841,       633,
   32.0045,       578,
    32.025,       565,
   32.0454,       636,
   32.0658,       618,
   32.0863,       631,
   32.1067,       599,
   32.1272,       643,
   32.1476,       637,
   32.1681,       598,
   32.1885,       531,
    32.209,       521,
   32.2294,       530,
   32.2499,       457,
   32.2703,       434,
   32.2908,       433,
   32.3112,       402,
   32.3317,       454,
   32.3521,       447,
   32.3725,       405,
    32.393,       452,
   32.4134,       436,
   32.4339,       458,
   32.4543,       448,
   32.4748,       419,
   32.4952,       406,
   32.5157,       421,
   32.5361,       406,
   32.5566,       392,
    32.577,       436,
   32.5975,       405,
   32.6179,       409,
   32.6384,       411,
   32.6588,       407,
   32.6792,       394,
   32.6997,       412,
   32.7201,       440,
   32.7406,       489,
    32.761,       576,
   32.7815,       652,
   32.8019,       599,
   32.8224,       519,
   32.8428,       480,
   32.8633,       493,
   32.8837,       445,
   32.9042,       416,
   32.9246,       479,
   32.9451,       512,
   32.9655,       504,
   32.9859,       530,
   33.0064,       501,
   33.0268,       458,
   33.0473,       425,
   33.0677,       418,
   33.0882,       461,
   33.1086,       459,
   33.1291,       503,
   33.1495,       535,
     33.17,       562,
   33.1904,       569,
   33.2109,       475,
   33.2313,       546,
   33.2518,       473,
   33.2722,       421,
   33.2927,       407,
   33.3131,       425,
   33.3335,       479,
    33.354,       469,
   33.3744,       496,
   33.3949,       516,
   33.4153,       518,
   33.4358,       520,
   33.4562,       613,
   33.4767,       613,
   33.4971,       615,
   33.5176,       590,
    33.538,       565,
   33.5585,       592,
   33.5789,       493,
   33.5994,       511,
   33.6198,       437,
   33.6402,       418,
   33.6607,       477,
   33.6811,       468,
   33.7016,       540,
    33.722,       495,
   33.7425,       488,
   33.7629,       493,
   33.7834,       451,
   33.8038,       417,
   33.8243,       377,
   33.8447,       349,
   33.8652,       346,
   33.8856,       361,
   33.9061,       372,
   33.9265,       376,
   33.9469,       389,
   33.9674,       361,
   33.9878,       368,
   34.0083,       348,
   34.0287,       359,
   34.0492,       381,
   34.0696,       371,
   34.0901,       335,
   34.1105,       342,
    34.131,       370,
   34.1514,       364,
   34.1719,       352,
   34.1923,       350,
   34.2128,       360,
   34.2332,       361,
   34.2536,       371,
   34.2741,       385,
   34.2945,       371,
    34.315,       395,
   34.3354,       362,
   34.3559,       345,
   34.3763,       364,
   34.3968,       344,
   34.4172,       357,
   34.4377,       346,
   34.4581,       367,
   34.4786,       363,
    34.499,       365,
   34.5195,       361,
   34.5399,       336,
   34.5604,       366,
   34.5808,       378,
   34.6012,       354,
   34.6217,       338,
   34.6421,       353,
   34.6626,       350,
    34.683,       326,
   34.7035,       361,
   34.7239,       357,
   34.7444,       372,
   34.7648,       362,
   34.7853,       384,
   34.8057,       392,
   34.8262,       397,
   34.8466,       376,
   34.8671,       406,
   34.8875,       402,
   34.9079,       448,
   34.9284,       400,
   34.9488,       433,
   34.9693,       453,
   34.9897,       402,
   35.0102,       432,
   35.0306,       465,
   35.0511,       438,
   35.0715,       577,
    35.092,       600,
   35.1124,       668,
   35.1329,       669,
   35.1533,       602,
   35.1738,       596,
   35.1942,       574,
   35.2146,       486,
   35.2351,       453,
   35.2555,       463,
    35.276,       523,
   35.2964,       518,
   35.3169,       550,
   35.3373,       590,
   35.3578,       540,
   35.3782,       520,
   35.3987,       485,
   35.4191,       447,
   35.4396,       436,
     35.46,       430,
   35.4805,       366,
   35.5009,       372,
   35.5213,       399,
   35.5418,       376,
   35.5622,       370,
   35.5827,       362,
   35.6031,       349,
   35.6236,       342,
    35.644,       374,
   35.6645,       393,
   35.6849,       369,
   35.7054,       365,
   35.7258,       366,
   35.7463,       353,
   35.7667,       412,
   35.7872,       369,
   35.8076,       392,
   35.8281,       420,
   35.8485,       507,
   35.8689,       563,
   35.8894,       754,
   35.9098,       811,
   35.9303,       816,
   35.9507,       808,
   35.9712,       876,
   35.9916,       769,
   36.0121,       765,
   36.0325,       668,
    36.053,       678,
   36.0734,       566,
   36.0939,       548,
   36.1143,       604,
   36.1348,       595,
   36.1552,       621,
   36.1756,       651,
   36.1961,       601,
   36.2165,       595,
    36.237,       661,
   36.2574,       661,
   36.2779,       737,
   36.2983,       617,
   36.3188,       597,
   36.3392,       567,
   36.3597,       528,
   36.3801,       462,
   36.4006,       445,
    36.421,       435,
   36.4415,       442,
   36.4619,       417,
   36.4823,       446,
   36.5028,       499,
   36.5232,       444,
   36.5437,       445,
   36.5641,       483,
   36.5846,       432,
    36.605,       426,
   36.6255,       358,
   36.6459,       389,
   36.6664,       402,
   36.6868,       373,
   36.7073,       378,
   36.7277,       347,
   36.7482,       363,
   36.7686,       349,
    36.789,       367,
   36.8095,       370,
   36.8299,       370,
   36.8504,       415,
   36.8708,       397,
   36.8913,       404,
   36.9117,       385,
   36.9322,       421,
   36.9526,       392,
   36.9731,       352,
   36.9935,       372,
    37.014,       369,
   37.0344,       360,
   37.0549,       358,
   37.0753,       336,
   37.0957,       371,
   37.1162,       355,
   37.1366,       403,
   37.1571,       362,
   37.1775,       350,
    37.198,       347,
   37.2184,       363,
   37.2389,       334,
   37.2593,       356,
   37.2798,       362,
   37.3002,       335,
   37.3207,       344,
   37.3411,       315,
   37.3616,       331,
    37.382,       330,
   37.4025,       367,
   37.4229,       327,
   37.4433,       384,
   37.4638,       359,
   37.4842,       337,
   37.5047,       353,
   37.5251,       385,
   37.5456,       341,
    37.566,       364,
   37.5865,       345,
   37.6069,       339,
   37.6274,       326,
   37.6478,       377,
   37.6683,       372,
   37.6887,       360,
   37.7092,       340,
   37.7296,       374,
     37.75,       356,
   37.7705,       392,
   37.7909,       369,
   37.8114,       330,
   37.8318,       335,
   37.8523,       320,
   37.8727,       303,
   37.8932,       350,
   37.9136,       344,
   37.9341,       354,
   37.9545,       336,
    37.975,       331,
   37.9954,       395,
   38.0159,       376,
   38.0363,       335,
   38.0567,       330,
   38.0772,       323,
   38.0976,       360,
   38.1181,       320,
   38.1385,       349,
    38.159,       352,
   38.1794,       326,
   38.1999,       383,
   38.2203,       377,
   38.2408,       379,
   38.2612,       364,
   38.2817,       342,
   38.3021,       367,
   38.3226,       364,
    38.343,       369,
   38.3634,       356,
   38.3839,       334,
   38.4043,       359,
   38.4248,       350,
   38.4452,       359,
   38.4657,       324,
   38.4861,       374,
   38.5066,       361,
    38.527,       320,
   38.5475,       374,
   38.5679,       340,
   38.5884,       324,
   38.6088,       313,
   38.6293,       327,
   38.6497,       342,
   38.6702,       357,
   38.6906,       399,
    38.711,       361,
   38.7315,       363,
   38.7519,       338,
   38.7724,       356,
   38.7928,       373,
   38.8133,       362,
   38.8337,       372,
   38.8542,       361,
   38.8746,       358,
   38.8951,       345,
   38.9155,       373,
    38.936,       363,
   38.9564,       353,
   38.9769,       356,
   38.9973,       370,
   39.0177,       369,
   39.0382,       405,
   39.0586,       358,
   39.0791,       444,
   39.0995,       392,
     39.12,       408,
   39.1404,       452,
   39.1609,       433,
   39.1813,       417,
   39.2018,       446,
   39.2222,       430,
   39.2427,       420,
   39.2631,       404,
   39.2836,       381,
    39.304,       363,
   39.3244,       346,
   39.3449,       397,
   39.3653,       419,
   39.3858,       435,
   39.4062,       408,
   39.4267,       427,
   39.4471,       382,
   39.4676,       396,
    39.488,       388,
   39.5085,       370,
   39.5289,       427,
   39.5494,       375,
   39.5698,       360,
   39.5903,       393,
   39.6107,       382,
   39.6311,       437,
   39.6516,       473,
    39.672,       556,
   39.6925,       645,
   39.7129,       688,
   39.7334,       721,
   39.7538,       741,
   39.7743,       766,
   39.7947,       763,
   39.8152,       750,
   39.8356,       696,
   39.8561,       642,
   39.8765,       616,
    39.897,       560,
   39.9174,       583,
   39.9379,       538,
   39.9583,       586,
   39.9787,       538,
   39.9992,       585,
