;RAW4.00
[RawHeader]
Date=01/20/2022
EstimatedTotalTime=1726.95
FurtherDQLReading=0
HardwareIndicator=65519
MeasuredTotalTime=1726.95
MeasurementFlag=1
NumberOfMeasuredRanges=1
NumberOfRanges=1
Time=12:14:55

[VarInfo]
Type=USER
Flags=0
Value=Lab Manager

[VarInfo]
Type=SAMPLEID
Flags=0
Value=

[VarInfo]
Type=COMMENT
Flags=0
Value=

[VarInfo]
Type=UTF
Flags=0
Value=

[VarInfo]
Type=CREATOR
Flags=0
Value=BrmlToV4Converter

[VarInfo]
Type=CREATOR_VERSION
Flags=0
Value=7.3.1.0

[HardwareConfiguration]
AbsorptionFactor=9999
ActivateAbsorber=0
Alpha1=0.7093
Alpha2=0.71359
AlphaAverage=0.71073
AlphaRatio=0.5
Analyzer=0
Anode=Mo
AntiScatteringSlit=18
BeamOpticsFlags=0
Beta=0.63229
BetaRelativeIntensity=0
DeactivateAbsorber=0
DetectorSlit=9999
DivergenceSlit=0.2
GoniometerControl=0
GoniometerDiameter=560
GoniometerModel=512
GoniometerStage=7
Monochromator=0
NearSampleSlit=9999
PrimarySollerSlit=2.5
SampleChanger=0
SecondSollerSlit=9999
SynchronousAxis=0
ThinFilmAttachment=9999
WaveUnit=A

[RangeHeader]
ActuallyUsedLambda=0.71073
AdditionalDetectorMask=257
DataRecordLength=4
DelayTime=0
DisplayPlaneNumber=0
EstimatedScanTime=1727
ExtraParametersMask=0
GeneratorCurrent=40
GeneratorVoltage=50
Increment=0.0204468
Increment3=0
NumberOfCompletedData=1566
NumberOfCounts=1
NumberOfDetectors=0
NumberOfDrives=2
NumberOfEncoderDrives=0
NumberOfMeasuredData=1566
NumberOfVaryingParameters=0
RangeStartTime=0
RotationSpeed=60
ScanMode=1
ScanType=Locked Coupled
SimulatedMeasConditions=0
SlitChangerIn=0
SmootingWidth=0
Start=8
Steps=1566
SynchronousRotation=0
Time=192

[VarInfo]
Type=PSD_DISCRIM
Flags=0
Value=0.488;0.518

[PSD]
ActualTwoTheta=9999
FirstUsedChannel=0
FixedPSD=0
PSDOpening=2.94433
PSDType=5

[Drive]
DriveFlags=1
DriveName=2Theta
DriveNumber=2
DriveOffset=0
OffsetIndex=0
OscillationAmplitude=0
OscillationSpeed=0
StartPosition=8

[Drive]
DriveFlags=1
DriveName=Theta
DriveNumber=1
DriveOffset=0
OffsetIndex=0
OscillationAmplitude=0
OscillationSpeed=0
StartPosition=4

[Data]
     Angle,       PSD,
         8,       441,
   8.02045,       421,
   8.04089,       413,
   8.06134,       425,
   8.08179,       403,
   8.10223,       407,
   8.12268,       429,
   8.14313,       410,
   8.16357,       403,
   8.18402,       424,
   8.20447,       409,
   8.22491,       422,
   8.24536,       394,
   8.26581,       398,
   8.28625,       415,
    8.3067,       381,
   8.32715,       388,
    8.3476,       392,
   8.36804,       342,
   8.38849,       396,
   8.40894,       407,
   8.42938,       390,
   8.44983,       377,
   8.47028,       378,
   8.49072,       375,
   8.51117,       371,
   8.53162,       385,
   8.55206,       376,
   8.57251,       361,
   8.59296,       378,
    8.6134,       373,
   8.63385,       362,
    8.6543,       362,
   8.67474,       373,
   8.69519,       387,
   8.71564,       338,
   8.73608,       356,
   8.75653,       330,
   8.77698,       350,
   8.79742,       400,
   8.81787,       360,
   8.83832,       368,
   8.85876,       355,
   8.87921,       350,
   8.89966,       361,
    8.9201,       335,
   8.94055,       341,
     8.961,       353,
   8.98144,       337,
   9.00189,       345,
   9.02234,       344,
   9.04279,       339,
   9.06323,       380,
   9.08368,       349,
   9.10413,       325,
   9.12457,       350,
   9.14502,       306,
   9.16547,       351,
   9.18591,       354,
   9.20636,       334,
   9.22681,       338,
   9.24725,       348,
    9.2677,       356,
   9.28815,       358,
   9.30859,       337,
   9.32904,       335,
   9.34949,       331,
   9.36993,       398,
   9.39038,       374,
   9.41083,       366,
   9.43127,       345,
   9.45172,       396,
   9.47217,       403,
   9.49261,       413,
   9.51306,       441,
   9.53351,       451,
   9.55395,       529,
    9.5744,       547,
   9.59485,       593,
   9.61529,       678,
   9.63574,       799,
   9.65619,       940,
   9.67663,      1174,
   9.69708,      1365,
   9.71753,      1525,
   9.73798,      1685,
   9.75842,      1543,
   9.77887,      1532,
   9.79932,      1339,
   9.81976,      1033,
   9.84021,       873,
   9.86066,       732,
    9.8811,       610,
   9.90155,       501,
     9.922,       487,
   9.94244,       448,
   9.96289,       450,
   9.98334,       436,
   10.0038,       430,
   10.0242,       431,
   10.0447,       429,
   10.0651,       391,
   10.0856,       433,
    10.106,       373,
   10.1265,       394,
   10.1469,       429,
   10.1674,       379,
   10.1878,       407,
   10.2083,       420,
   10.2287,       401,
   10.2491,       433,
   10.2696,       425,
     10.29,       423,
   10.3105,       435,
   10.3309,       402,
   10.3514,       368,
   10.3718,       398,
   10.3923,       337,
   10.4127,       349,
   10.4332,       368,
   10.4536,       336,
   10.4741,       356,
   10.4945,       394,
    10.515,       399,
   10.5354,       362,
   10.5558,       357,
   10.5763,       342,
   10.5967,       413,
   10.6172,       468,
   10.6376,       478,
   10.6581,       525,
   10.6785,       571,
    10.699,       493,
   10.7194,       503,
   10.7399,       474,
   10.7603,       444,
   10.7808,       433,
   10.8012,       407,
   10.8217,       383,
   10.8421,       414,
   10.8625,       359,
    10.883,       428,
   10.9034,       428,
   10.9239,       417,
   10.9443,       413,
   10.9648,       453,
   10.9852,       459,
   11.0057,       468,
   11.0261,       512,
   11.0466,       504,
    11.067,       537,
   11.0875,       590,
   11.1079,       594,
   11.1284,       605,
   11.1488,       703,
   11.1692,       635,
   11.1897,       693,
   11.2101,       736,
   11.2306,       754,
    11.251,       785,
   11.2715,       901,
   11.2919,      1009,
   11.3124,      1256,
   11.3328,      1387,
   11.3533,      1601,
   11.3737,      1990,
   11.3942,      2484,
   11.4146,      3232,
   11.4351,      3924,
   11.4555,      4449,
    11.476,      5085,
   11.4964,      5699,
   11.5168,      5805,
   11.5373,      5599,
   11.5577,      5137,
   11.5782,      4633,
   11.5986,      3940,
   11.6191,      3277,
   11.6395,      2632,
     11.66,      2175,
   11.6804,      1647,
   11.7009,      1385,
   11.7213,      1137,
   11.7418,       953,
   11.7622,       929,
   11.7827,       812,
   11.8031,       735,
   11.8235,       707,
    11.844,       681,
   11.8644,       656,
   11.8849,       660,
   11.9053,       635,
   11.9258,       602,
   11.9462,       614,
   11.9667,       621,
   11.9871,       658,
   12.0076,       630,
    12.028,       677,
   12.0485,       725,
   12.0689,       628,
   12.0894,       708,
   12.1098,       736,
   12.1302,       770,
   12.1507,       803,
   12.1711,       844,
   12.1916,       862,
    12.212,       927,
   12.2325,      1126,
   12.2529,      1256,
   12.2734,      1469,
   12.2938,      1790,
   12.3143,      2010,
   12.3347,      2524,
   12.3552,      3091,
   12.3756,      3904,
   12.3961,      4717,
   12.4165,      5832,
   12.4369,      6896,
   12.4574,      7683,
   12.4778,      8449,
   12.4983,      8593,
   12.5187,      8482,
   12.5392,      7759,
   12.5596,      7178,
   12.5801,      5985,
   12.6005,      5149,
    12.621,      4256,
   12.6414,      3403,
   12.6619,      2673,
   12.6823,      2155,
   12.7028,      1767,
   12.7232,      1492,
   12.7437,      1270,
   12.7641,      1095,
   12.7845,      1030,
    12.805,       923,
   12.8254,       831,
   12.8459,       732,
   12.8663,       726,
   12.8868,       687,
   12.9072,       611,
   12.9277,       627,
   12.9481,       576,
   12.9686,       536,
    12.989,       529,
   13.0095,       530,
   13.0299,       558,
   13.0504,       502,
   13.0708,       490,
   13.0912,       468,
   13.1117,       486,
   13.1321,       493,
   13.1526,       460,
    13.173,       463,
   13.1935,       455,
   13.2139,       475,
   13.2344,       472,
   13.2548,       469,
   13.2753,       500,
   13.2957,       457,
   13.3162,       536,
   13.3366,       523,
   13.3571,       518,
   13.3775,       610,
   13.3979,       628,
   13.4184,       609,
   13.4388,       805,
   13.4593,       983,
   13.4797,      1321,
   13.5002,      1701,
   13.5206,      1958,
   13.5411,      1965,
   13.5615,      2013,
    13.582,      1842,
   13.6024,      1528,
   13.6229,      1464,
   13.6433,      1183,
   13.6638,       928,
   13.6842,       716,
   13.7046,       605,
   13.7251,       533,
   13.7455,       488,
    13.766,       500,
   13.7864,       487,
   13.8069,       533,
   13.8273,       490,
   13.8478,       525,
   13.8682,       506,
   13.8887,       519,
   13.9091,       478,
   13.9296,       479,
     13.95,       501,
   13.9705,       491,
   13.9909,       481,
   14.0113,       442,
   14.0318,       481,
   14.0522,       498,
   14.0727,       430,
   14.0931,       472,
   14.1136,       496,
    14.134,       466,
   14.1545,       446,
   14.1749,       423,
   14.1954,       489,
   14.2158,       445,
   14.2363,       431,
   14.2567,       442,
   14.2772,       473,
   14.2976,       450,
   14.3181,       443,
   14.3385,       527,
   14.3589,       502,
   14.3794,       534,
   14.3998,       540,
   14.4203,       577,
   14.4407,       562,
   14.4612,       618,
   14.4816,       691,
   14.5021,       757,
   14.5225,       889,
    14.543,       976,
   14.5634,      1057,
   14.5839,      1064,
   14.6043,      1029,
   14.6248,       998,
   14.6452,       986,
   14.6656,       995,
   14.6861,       938,
   14.7065,       894,
    14.727,       998,
   14.7474,      1041,
   14.7679,       983,
   14.7883,      1143,
   14.8088,      1238,
   14.8292,      1436,
   14.8497,      1606,
   14.8701,      1906,
   14.8906,      2234,
    14.911,      2677,
   14.9315,      3355,
   14.9519,      4052,
   14.9723,      4946,
   14.9928,      5669,
   15.0132,      6350,
   15.0337,      6866,
   15.0541,      7022,
   15.0746,      7152,
    15.095,      6885,
   15.1155,      6355,
   15.1359,      5770,
   15.1564,      5122,
   15.1768,      4328,
   15.1973,      3629,
   15.2177,      3097,
   15.2382,      2475,
   15.2586,      2156,
    15.279,      1785,
   15.2995,      1573,
   15.3199,      1373,
   15.3404,      1258,
   15.3608,      1076,
   15.3813,      1013,
   15.4017,       953,
   15.4222,       883,
   15.4426,       810,
   15.4631,       764,
   15.4835,       756,
    15.504,       674,
   15.5244,       644,
   15.5449,       659,
   15.5653,       606,
   15.5858,       576,
   15.6062,       524,
   15.6266,       563,
   15.6471,       535,
   15.6675,       491,
    15.688,       494,
   15.7084,       511,
   15.7289,       473,
   15.7493,       446,
   15.7698,       488,
   15.7902,       452,
   15.8107,       446,
   15.8311,       431,
   15.8516,       410,
    15.872,       401,
   15.8925,       420,
   15.9129,       413,
   15.9333,       431,
   15.9538,       374,
   15.9742,       349,
   15.9947,       383,
   16.0151,       383,
   16.0356,       418,
    16.056,       361,
   16.0765,       394,
   16.0969,       336,
   16.1174,       377,
   16.1378,       361,
   16.1583,       376,
   16.1787,       369,
   16.1992,       369,
   16.2196,       382,
     16.24,       410,
   16.2605,       368,
   16.2809,       397,
   16.3014,       367,
   16.3218,       372,
   16.3423,       390,
   16.3627,       380,
   16.3832,       453,
   16.4036,       474,
   16.4241,       489,
   16.4445,       543,
    16.465,       524,
   16.4854,       541,
   16.5059,       565,
   16.5263,       495,
   16.5467,       483,
   16.5672,       471,
   16.5876,       440,
   16.6081,       411,
   16.6285,       362,
    16.649,       369,
   16.6694,       401,
   16.6899,       383,
   16.7103,       385,
   16.7308,       368,
   16.7512,       364,
   16.7717,       343,
   16.7921,       359,
   16.8126,       357,
    16.833,       375,
   16.8535,       389,
   16.8739,       360,
   16.8943,       377,
   16.9148,       387,
   16.9352,       369,
   16.9557,       376,
   16.9761,       375,
   16.9966,       357,
    17.017,       379,
   17.0375,       380,
   17.0579,       376,
   17.0784,       408,
   17.0988,       403,
   17.1193,       357,
   17.1397,       333,
   17.1602,       368,
   17.1806,       404,
    17.201,       396,
   17.2215,       417,
   17.2419,       457,
   17.2624,       415,
   17.2828,       422,
   17.3033,       428,
   17.3237,       443,
   17.3442,       442,
   17.3646,       478,
   17.3851,       468,
   17.4055,       456,
    17.426,       469,
   17.4464,       493,
   17.4669,       546,
   17.4873,       500,
   17.5077,       559,
   17.5282,       635,
   17.5486,       642,
   17.5691,       712,
   17.5895,       712,
     17.61,       706,
   17.6304,       799,
   17.6509,       830,
   17.6713,       892,
   17.6918,       923,
   17.7122,       977,
   17.7327,      1012,
   17.7531,       960,
   17.7736,       986,
    17.794,       989,
   17.8144,       932,
   17.8349,       940,
   17.8553,       963,
   17.8758,       945,
   17.8962,       970,
   17.9167,      1006,
   17.9371,      1063,
   17.9576,      1026,
    17.978,      1052,
   17.9985,      1007,
   18.0189,      1049,
   18.0394,      1038,
   18.0598,       964,
   18.0803,       925,
   18.1007,       893,
   18.1211,       845,
   18.1416,       817,
    18.162,       790,
   18.1825,       710,
   18.2029,       735,
   18.2234,       731,
   18.2438,       682,
   18.2643,       651,
   18.2847,       736,
   18.3052,       738,
   18.3256,       676,
   18.3461,       720,
   18.3665,       653,
    18.387,       628,
   18.4074,       726,
   18.4279,       685,
   18.4483,       601,
   18.4687,       672,
   18.4892,       745,
   18.5096,       764,
   18.5301,       725,
   18.5505,       705,
    18.571,       737,
   18.5914,       736,
   18.6119,       715,
   18.6323,       696,
   18.6528,       711,
   18.6732,       626,
   18.6937,       644,
   18.7141,       612,
   18.7346,       619,
    18.755,       627,
   18.7754,       581,
   18.7959,       584,
   18.8163,       628,
   18.8368,       574,
   18.8572,       630,
   18.8777,       621,
   18.8981,       599,
   18.9186,       647,
    18.939,       582,
   18.9595,       681,
   18.9799,       650,
   19.0004,       692,
   19.0208,       675,
   19.0413,       669,
   19.0617,       690,
   19.0821,       679,
   19.1026,       648,
    19.123,       669,
   19.1435,       650,
   19.1639,       605,
   19.1844,       634,
   19.2048,       643,
   19.2253,       640,
   19.2457,       629,
   19.2662,       702,
   19.2866,       721,
   19.3071,       753,
   19.3275,       769,
    19.348,       847,
   19.3684,       957,
   19.3888,       997,
   19.4093,      1034,
   19.4297,      1077,
   19.4502,      1027,
   19.4706,      1029,
   19.4911,       993,
   19.5115,       985,
    19.532,      1006,
   19.5524,      1073,
   19.5729,      1090,
   19.5933,      1093,
   19.6138,      1119,
   19.6342,      1072,
   19.6547,      1036,
   19.6751,      1172,
   19.6956,      1152,
    19.716,      1321,
   19.7364,      1388,
   19.7569,      1636,
   19.7773,      1825,
   19.7978,      2174,
   19.8182,      2475,
   19.8387,      2890,
   19.8591,      3241,
   19.8796,      3559,
      19.9,      3709,
   19.9205,      3859,
   19.9409,      3766,
   19.9614,      3592,
   19.9818,      3523,
   20.0023,      3261,
   20.0227,      3000,
   20.0431,      2732,
   20.0636,      2414,
    20.084,      2160,
   20.1045,      1863,
   20.1249,      1600,
   20.1454,      1389,
   20.1658,      1207,
   20.1863,      1058,
   20.2067,       968,
   20.2272,       870,
   20.2476,       808,
   20.2681,       782,
   20.2885,       721,
    20.309,       652,
   20.3294,       610,
   20.3498,       615,
   20.3703,       599,
   20.3907,       535,
   20.4112,       536,
   20.4316,       588,
   20.4521,       513,
   20.4725,       601,
    20.493,       586,
   20.5134,       573,
   20.5339,       547,
   20.5543,       626,
   20.5748,       636,
   20.5952,       684,
   20.6157,       678,
   20.6361,       616,
   20.6565,       634,
    20.677,       601,
   20.6974,       604,
   20.7179,       547,
   20.7383,       579,
   20.7588,       559,
   20.7792,       488,
   20.7997,       495,
   20.8201,       494,
   20.8406,       435,
    20.861,       478,
   20.8815,       451,
   20.9019,       423,
   20.9224,       448,
   20.9428,       434,
   20.9633,       448,
   20.9837,       461,
   21.0041,       417,
   21.0246,       431,
    21.045,       417,
   21.0655,       420,
   21.0859,       385,
   21.1064,       446,
   21.1268,       394,
   21.1473,       439,
   21.1677,       444,
   21.1882,       489,
   21.2086,       431,
   21.2291,       458,
   21.2495,       483,
     21.27,       479,
   21.2904,       506,
   21.3108,       531,
   21.3313,       554,
   21.3517,       557,
   21.3722,       511,
   21.3926,       614,
   21.4131,       569,
   21.4335,       608,
    21.454,       709,
   21.4744,       747,
   21.4949,       738,
   21.5153,       693,
   21.5358,       662,
   21.5562,       589,
   21.5767,       628,
   21.5971,       636,
   21.6175,       625,
    21.638,       605,
   21.6584,       516,
   21.6789,       567,
   21.6993,       518,
   21.7198,       542,
   21.7402,       505,
   21.7607,       537,
   21.7811,       520,
   21.8016,       592,
    21.822,       601,
   21.8425,       645,
   21.8629,       659,
   21.8834,       793,
   21.9038,       871,
   21.9242,       914,
   21.9447,       923,
   21.9651,       941,
   21.9856,       949,
    22.006,      1048,
   22.0265,      1151,
   22.0469,      1245,
   22.0674,      1360,
   22.0878,      1437,
   22.1083,      1478,
   22.1287,      1562,
   22.1492,      1596,
   22.1696,      1676,
   22.1901,      1642,
   22.2105,      1690,
    22.231,      1670,
   22.2514,      1574,
   22.2718,      1520,
   22.2923,      1484,
   22.3127,      1507,
   22.3332,      1453,
   22.3536,      1410,
   22.3741,      1392,
   22.3945,      1403,
    22.415,      1476,
   22.4354,      1573,
   22.4559,      1787,
   22.4763,      2030,
   22.4968,      2308,
   22.5172,      2615,
   22.5377,      2931,
   22.5581,      3129,
   22.5785,      3317,
    22.599,      3223,
   22.6194,      3181,
   22.6399,      3103,
   22.6603,      2852,
   22.6808,      2792,
   22.7012,      2581,
   22.7217,      2323,
   22.7421,      2155,
   22.7626,      1926,
    22.783,      1812,
   22.8035,      1485,
   22.8239,      1257,
   22.8444,      1095,
   22.8648,       979,
   22.8852,       944,
   22.9057,       919,
   22.9261,       817,
   22.9466,       781,
    22.967,       773,
   22.9875,       807,
   23.0079,       773,
   23.0284,       749,
   23.0488,       743,
   23.0693,       698,
   23.0897,       680,
   23.1102,       676,
   23.1306,       653,
   23.1511,       641,
   23.1715,       591,
   23.1919,       598,
   23.2124,       580,
   23.2328,       542,
   23.2533,       526,
   23.2737,       544,
   23.2942,       532,
   23.3146,       515,
   23.3351,       524,
   23.3555,       506,
    23.376,       519,
   23.3964,       497,
   23.4169,       531,
   23.4373,       503,
   23.4578,       524,
   23.4782,       560,
   23.4986,       492,
   23.5191,       540,
   23.5395,       503,
     23.56,       522,
   23.5804,       529,
   23.6009,       511,
   23.6213,       529,
   23.6418,       519,
   23.6622,       515,
   23.6827,       497,
   23.7031,       483,
   23.7236,       495,
    23.744,       499,
   23.7645,       477,
   23.7849,       479,
   23.8054,       482,
   23.8258,       488,
   23.8462,       501,
   23.8667,       478,
   23.8871,       491,
   23.9076,       498,
    23.928,       461,
   23.9485,       489,
   23.9689,       506,
   23.9894,       476,
   24.0098,       490,
   24.0303,       488,
   24.0507,       487,
   24.0712,       507,
   24.0916,       486,
   24.1121,       505,
   24.1325,       516,
   24.1529,       496,
   24.1734,       538,
   24.1938,       471,
   24.2143,       477,
   24.2347,       511,
   24.2552,       490,
   24.2756,       537,
   24.2961,       506,
   24.3165,       482,
    24.337,       538,
   24.3574,       518,
   24.3779,       528,
   24.3983,       553,
   24.4188,       545,
   24.4392,       556,
   24.4596,       543,
   24.4801,       583,
   24.5005,       572,
    24.521,       570,
   24.5414,       588,
   24.5619,       602,
   24.5823,       577,
   24.6028,       636,
   24.6232,       605,
   24.6437,       642,
   24.6641,       634,
   24.6846,       628,
    24.705,       638,
   24.7255,       704,
   24.7459,       695,
   24.7663,       706,
   24.7868,       781,
   24.8072,       808,
   24.8277,       843,
   24.8481,       916,
   24.8686,      1000,
    24.889,      1096,
   24.9095,      1122,
   24.9299,      1265,
   24.9504,      1356,
   24.9708,      1449,
   24.9913,      1429,
   25.0117,      1543,
   25.0322,      1490,
   25.0526,      1505,
   25.0731,      1426,
   25.0935,      1365,
   25.1139,      1299,
   25.1344,      1330,
   25.1548,      1209,
   25.1753,      1169,
   25.1957,      1103,
   25.2162,      1004,
   25.2366,      1014,
   25.2571,       919,
   25.2775,       863,
    25.298,       901,
   25.3184,       796,
   25.3389,       726,
   25.3593,       719,
   25.3798,       651,
   25.4002,       646,
   25.4206,       623,
   25.4411,       648,
   25.4615,       626,
    25.482,       604,
   25.5024,       564,
   25.5229,       561,
   25.5433,       633,
   25.5638,       539,
   25.5842,       593,
   25.6047,       614,
   25.6251,       593,
   25.6456,       628,
    25.666,       627,
   25.6865,       597,
   25.7069,       600,
   25.7273,       561,
   25.7478,       588,
   25.7682,       576,
   25.7887,       573,
   25.8091,       548,
   25.8296,       566,
     25.85,       584,
   25.8705,       535,
   25.8909,       529,
   25.9114,       511,
   25.9318,       508,
   25.9523,       483,
   25.9727,       563,
   25.9932,       524,
   26.0136,       487,
    26.034,       513,
   26.0545,       487,
   26.0749,       497,
   26.0954,       550,
   26.1158,       517,
   26.1363,       532,
   26.1567,       483,
   26.1772,       523,
   26.1976,       459,
   26.2181,       520,
   26.2385,       495,
    26.259,       502,
   26.2794,       481,
   26.2999,       492,
   26.3203,       488,
   26.3408,       502,
   26.3612,       502,
   26.3816,       537,
   26.4021,       507,
   26.4225,       510,
    26.443,       538,
   26.4634,       520,
   26.4839,       490,
   26.5043,       516,
   26.5248,       530,
   26.5452,       575,
   26.5657,       610,
   26.5861,       593,
   26.6066,       591,
    26.627,       707,
   26.6475,       654,
   26.6679,       675,
   26.6883,       647,
   26.7088,       668,
   26.7292,       642,
   26.7497,       654,
   26.7701,       660,
   26.7906,       671,
    26.811,       714,
   26.8315,       643,
   26.8519,       646,
   26.8724,       692,
   26.8928,       631,
   26.9133,       638,
   26.9337,       605,
   26.9542,       636,
   26.9746,       590,
    26.995,       610,
   27.0155,       599,
   27.0359,       590,
   27.0564,       601,
   27.0768,       569,
   27.0973,       580,
   27.1177,       599,
   27.1382,       619,
   27.1586,       564,
   27.1791,       542,
   27.1995,       637,
     27.22,       603,
   27.2404,       575,
   27.2609,       565,
   27.2813,       591,
   27.3017,       597,
   27.3222,       558,
   27.3426,       570,
   27.3631,       543,
   27.3835,       518,
    27.404,       539,
   27.4244,       540,
   27.4449,       511,
   27.4653,       512,
   27.4858,       528,
   27.5062,       505,
   27.5267,       576,
   27.5471,       513,
   27.5676,       523,
    27.588,       533,
   27.6084,       529,
   27.6289,       473,
   27.6493,       494,
   27.6698,       495,
   27.6902,       525,
   27.7107,       523,
   27.7311,       510,
   27.7516,       539,
    27.772,       577,
   27.7925,       541,
   27.8129,       604,
   27.8334,       639,
   27.8538,       628,
   27.8743,       649,
   27.8947,       667,
   27.9152,       679,
   27.9356,       741,
    27.956,       703,
   27.9765,       613,
   27.9969,       655,
   28.0174,       666,
   28.0378,       656,
   28.0583,       585,
   28.0787,       621,
   28.0992,       579,
   28.1196,       546,
   28.1401,       617,
   28.1605,       550,
    28.181,       526,
   28.2014,       562,
   28.2219,       547,
   28.2423,       505,
   28.2627,       488,
   28.2832,       527,
   28.3036,       496,
   28.3241,       506,
   28.3445,       492,
    28.365,       475,
   28.3854,       458,
   28.4059,       480,
   28.4263,       428,
   28.4468,       451,
   28.4672,       457,
   28.4877,       453,
   28.5081,       437,
   28.5286,       442,
    28.549,       459,
   28.5694,       528,
   28.5899,       537,
   28.6103,       513,
   28.6308,       557,
   28.6512,       493,
   28.6717,       499,
   28.6921,       509,
   28.7126,       461,
    28.733,       484,
   28.7535,       469,
   28.7739,       470,
   28.7944,       504,
   28.8148,       450,
   28.8353,       492,
   28.8557,       487,
   28.8761,       487,
   28.8966,       429,
    28.917,       494,
   28.9375,       516,
   28.9579,       508,
   28.9784,       529,
   28.9988,       471,
   29.0193,       532,
   29.0397,       520,
   29.0602,       473,
   29.0806,       557,
   29.1011,       509,
   29.1215,       546,
    29.142,       528,
   29.1624,       510,
   29.1829,       545,
   29.2033,       550,
   29.2237,       528,
   29.2442,       537,
   29.2646,       566,
   29.2851,       508,
   29.3055,       522,
    29.326,       482,
   29.3464,       498,
   29.3669,       505,
   29.3873,       530,
   29.4078,       488,
   29.4282,       509,
   29.4487,       497,
   29.4691,       470,
   29.4896,       513,
     29.51,       528,
   29.5304,       494,
   29.5509,       513,
   29.5713,       496,
   29.5918,       473,
   29.6122,       474,
   29.6327,       497,
   29.6531,       513,
   29.6736,       513,
    29.694,       511,
   29.7145,       479,
   29.7349,       474,
   29.7554,       501,
   29.7758,       495,
   29.7963,       517,
   29.8167,       537,
   29.8371,       543,
   29.8576,       528,
    29.878,       515,
   29.8985,       532,
   29.9189,       575,
   29.9394,       541,
   29.9598,       615,
   29.9803,       591,
   30.0007,       577,
   30.0212,       571,
   30.0416,       568,
   30.0621,       609,
   30.0825,       617,
    30.103,       639,
   30.1234,       670,
   30.1438,       649,
   30.1643,       680,
   30.1847,       740,
   30.2052,       667,
   30.2256,       701,
   30.2461,       704,
   30.2665,       666,
    30.287,       655,
   30.3074,       723,
   30.3279,       617,
   30.3483,       693,
   30.3688,       732,
   30.3892,       692,
   30.4097,       688,
   30.4301,       652,
   30.4506,       634,
    30.471,       639,
   30.4914,       611,
   30.5119,       619,
   30.5323,       613,
   30.5528,       623,
   30.5732,       622,
   30.5937,       610,
   30.6141,       557,
   30.6346,       642,
    30.655,       598,
   30.6755,       581,
   30.6959,       529,
   30.7164,       535,
   30.7368,       566,
   30.7573,       585,
   30.7777,       564,
   30.7981,       566,
   30.8186,       561,
    30.839,       552,
   30.8595,       567,
   30.8799,       546,
   30.9004,       549,
   30.9208,       535,
   30.9413,       576,
   30.9617,       588,
   30.9822,       571,
   31.0026,       568,
   31.0231,       608,
   31.0435,       575,
    31.064,       564,
   31.0844,       581,
   31.1048,       523,
   31.1253,       557,
   31.1457,       589,
   31.1662,       547,
   31.1866,       538,
   31.2071,       559,
   31.2275,       566,
    31.248,       538,
   31.2684,       574,
   31.2889,       602,
   31.3093,       591,
   31.3298,       577,
   31.3502,       591,
   31.3707,       648,
   31.3911,       677,
   31.4115,       730,
    31.432,       741,
   31.4524,       783,
   31.4729,       774,
   31.4933,       800,
   31.5138,       828,
   31.5342,       742,
   31.5547,       741,
   31.5751,       766,
   31.5956,       723,
    31.616,       727,
   31.6365,       717,
   31.6569,       722,
   31.6774,       679,
   31.6978,       704,
   31.7183,       675,
   31.7387,       642,
   31.7591,       639,
   31.7796,       647,
      31.8,       618,
   31.8205,       627,
   31.8409,       652,
   31.8614,       658,
   31.8818,       684,
   31.9023,       599,
   31.9227,       671,
   31.9432,       703,
   31.9636,       725,
   31.9841,       726,
   32.0045,       766,
    32.025,       809,
   32.0454,       819,
   32.0658,       859,
   32.0863,       846,
   32.1067,       865,
   32.1272,       834,
   32.1476,       849,
   32.1681,       851,
   32.1885,       857,
    32.209,       848,
   32.2294,       832,
   32.2499,       813,
   32.2703,       803,
   32.2908,       774,
   32.3112,       708,
   32.3317,       681,
   32.3521,       682,
   32.3725,       639,
    32.393,       652,
   32.4134,       623,
   32.4339,       619,
   32.4543,       600,
   32.4748,       558,
   32.4952,       524,
   32.5157,       507,
   32.5361,       533,
   32.5566,       481,
    32.577,       478,
   32.5975,       511,
   32.6179,       476,
   32.6384,       451,
   32.6588,       471,
   32.6792,       460,
   32.6997,       492,
   32.7201,       491,
   32.7406,       437,
    32.761,       501,
   32.7815,       472,
   32.8019,       455,
   32.8224,       468,
   32.8428,       434,
   32.8633,       434,
   32.8837,       462,
   32.9042,       433,
   32.9246,       473,
   32.9451,       440,
   32.9655,       449,
   32.9859,       418,
   33.0064,       457,
   33.0268,       460,
   33.0473,       410,
   33.0677,       449,
   33.0882,       436,
   33.1086,       413,
   33.1291,       435,
   33.1495,       445,
     33.17,       400,
   33.1904,       403,
   33.2109,       429,
   33.2313,       431,
   33.2518,       417,
   33.2722,       421,
   33.2927,       408,
   33.3131,       434,
   33.3335,       441,
    33.354,       430,
   33.3744,       364,
   33.3949,       401,
   33.4153,       421,
   33.4358,       424,
   33.4562,       434,
   33.4767,       423,
   33.4971,       400,
   33.5176,       446,
    33.538,       436,
   33.5585,       417,
   33.5789,       396,
   33.5994,       462,
   33.6198,       442,
   33.6402,       402,
   33.6607,       413,
   33.6811,       460,
   33.7016,       456,
    33.722,       426,
   33.7425,       402,
   33.7629,       433,
   33.7834,       435,
   33.8038,       402,
   33.8243,       408,
   33.8447,       381,
   33.8652,       422,
   33.8856,       386,
   33.9061,       431,
   33.9265,       388,
   33.9469,       431,
   33.9674,       399,
   33.9878,       424,
   34.0083,       424,
   34.0287,       433,
   34.0492,       415,
   34.0696,       417,
   34.0901,       413,
   34.1105,       409,
    34.131,       437,
   34.1514,       427,
   34.1719,       404,
   34.1923,       444,
   34.2128,       444,
   34.2332,       428,
   34.2536,       388,
   34.2741,       400,
   34.2945,       385,
    34.315,       432,
   34.3354,       409,
   34.3559,       440,
   34.3763,       448,
   34.3968,       367,
   34.4172,       431,
   34.4377,       403,
   34.4581,       405,
   34.4786,       419,
    34.499,       431,
   34.5195,       400,
   34.5399,       425,
   34.5604,       390,
   34.5808,       423,
   34.6012,       462,
   34.6217,       425,
   34.6421,       458,
   34.6626,       440,
    34.683,       461,
   34.7035,       449,
   34.7239,       463,
   34.7444,       427,
   34.7648,       459,
   34.7853,       467,
   34.8057,       495,
   34.8262,       468,
   34.8466,       434,
   34.8671,       466,
   34.8875,       452,
   34.9079,       460,
   34.9284,       448,
   34.9488,       447,
   34.9693,       437,
   34.9897,       407,
   35.0102,       451,
   35.0306,       439,
   35.0511,       457,
   35.0715,       426,
    35.092,       486,
   35.1124,       445,
   35.1329,       462,
   35.1533,       464,
   35.1738,       441,
   35.1942,       409,
   35.2146,       398,
   35.2351,       469,
   35.2555,       399,
    35.276,       442,
   35.2964,       453,
   35.3169,       418,
   35.3373,       455,
   35.3578,       391,
   35.3782,       439,
   35.3987,       433,
   35.4191,       453,
   35.4396,       451,
     35.46,       506,
   35.4805,       437,
   35.5009,       489,
   35.5213,       481,
   35.5418,       512,
   35.5622,       490,
   35.5827,       459,
   35.6031,       460,
   35.6236,       487,
    35.644,       501,
   35.6645,       463,
   35.6849,       452,
   35.7054,       483,
   35.7258,       493,
   35.7463,       485,
   35.7667,       527,
   35.7872,       474,
   35.8076,       460,
   35.8281,       467,
   35.8485,       486,
   35.8689,       485,
   35.8894,       534,
   35.9098,       517,
   35.9303,       485,
   35.9507,       551,
   35.9712,       519,
   35.9916,       537,
   36.0121,       535,
   36.0325,       530,
    36.053,       532,
   36.0734,       595,
   36.0939,       554,
   36.1143,       575,
   36.1348,       573,
   36.1552,       541,
   36.1756,       584,
   36.1961,       581,
   36.2165,       647,
    36.237,       605,
   36.2574,       577,
   36.2779,       611,
   36.2983,       592,
   36.3188,       614,
   36.3392,       623,
   36.3597,       633,
   36.3801,       563,
   36.4006,       589,
    36.421,       569,
   36.4415,       567,
   36.4619,       606,
   36.4823,       590,
   36.5028,       550,
   36.5232,       582,
   36.5437,       557,
   36.5641,       554,
   36.5846,       569,
    36.605,       519,
   36.6255,       538,
   36.6459,       546,
   36.6664,       514,
   36.6868,       521,
   36.7073,       484,
   36.7277,       474,
   36.7482,       471,
   36.7686,       465,
    36.789,       456,
   36.8095,       450,
   36.8299,       455,
   36.8504,       476,
   36.8708,       465,
   36.8913,       446,
   36.9117,       389,
   36.9322,       417,
   36.9526,       447,
   36.9731,       411,
   36.9935,       431,
    37.014,       437,
   37.0344,       420,
   37.0549,       430,
   37.0753,       397,
   37.0957,       392,
   37.1162,       415,
   37.1366,       435,
   37.1571,       437,
   37.1775,       455,
    37.198,       374,
   37.2184,       474,
   37.2389,       496,
   37.2593,       456,
   37.2798,       436,
   37.3002,       490,
   37.3207,       479,
   37.3411,       495,
   37.3616,       521,
    37.382,       536,
   37.4025,       527,
   37.4229,       548,
   37.4433,       537,
   37.4638,       540,
   37.4842,       530,
   37.5047,       524,
   37.5251,       498,
   37.5456,       532,
    37.566,       482,
   37.5865,       489,
   37.6069,       492,
   37.6274,       485,
   37.6478,       509,
   37.6683,       497,
   37.6887,       471,
   37.7092,       470,
   37.7296,       465,
     37.75,       454,
   37.7705,       452,
   37.7909,       445,
   37.8114,       443,
   37.8318,       458,
   37.8523,       442,
   37.8727,       454,
   37.8932,       441,
   37.9136,       435,
   37.9341,       430,
   37.9545,       421,
    37.975,       395,
   37.9954,       412,
   38.0159,       389,
   38.0363,       369,
   38.0567,       446,
   38.0772,       403,
   38.0976,       411,
   38.1181,       429,
   38.1385,       433,
    38.159,       424,
   38.1794,       409,
   38.1999,       420,
   38.2203,       385,
   38.2408,       429,
   38.2612,       407,
   38.2817,       422,
   38.3021,       380,
   38.3226,       388,
    38.343,       402,
   38.3634,       368,
   38.3839,       404,
   38.4043,       384,
   38.4248,       404,
   38.4452,       407,
   38.4657,       358,
   38.4861,       411,
   38.5066,       424,
    38.527,       421,
   38.5475,       402,
   38.5679,       411,
   38.5884,       383,
   38.6088,       408,
   38.6293,       370,
   38.6497,       406,
   38.6702,       385,
   38.6906,       390,
    38.711,       379,
   38.7315,       377,
   38.7519,       378,
   38.7724,       376,
   38.7928,       379,
   38.8133,       410,
   38.8337,       373,
   38.8542,       347,
   38.8746,       389,
   38.8951,       384,
   38.9155,       405,
    38.936,       317,
   38.9564,       368,
   38.9769,       373,
   38.9973,       403,
   39.0177,       412,
   39.0382,       353,
   39.0586,       423,
   39.0791,       394,
   39.0995,       408,
     39.12,       404,
   39.1404,       445,
   39.1609,       464,
   39.1813,       468,
   39.2018,       448,
   39.2222,       395,
   39.2427,       439,
   39.2631,       429,
   39.2836,       442,
    39.304,       452,
   39.3244,       471,
   39.3449,       458,
   39.3653,       455,
   39.3858,       421,
   39.4062,       426,
   39.4267,       415,
   39.4471,       412,
   39.4676,       434,
    39.488,       424,
   39.5085,       440,
   39.5289,       432,
   39.5494,       454,
   39.5698,       440,
   39.5903,       414,
   39.6107,       456,
   39.6311,       417,
   39.6516,       427,
    39.672,       405,
   39.6925,       415,
   39.7129,       418,
   39.7334,       413,
   39.7538,       446,
   39.7743,       397,
   39.7947,       419,
   39.8152,       445,
   39.8356,       390,
   39.8561,       424,
   39.8765,       468,
    39.897,       450,
   39.9174,       414,
   39.9379,       412,
   39.9583,       411,
   39.9787,       424,
   39.9992,       423,
