;RAW4.00
[RawHeader]
Date=06/29/2021
EstimatedTotalTime=385.628
FurtherDQLReading=0
HardwareIndicator=65519
MeasuredTotalTime=385.628
MeasurementFlag=1
NumberOfMeasuredRanges=1
NumberOfRanges=1
Time=11:18:28

[VarInfo]
Type=USER
Flags=0
Value=Lab Manager

[VarInfo]
Type=SAMPLEID
Flags=0
Value=

[VarInfo]
Type=COMMENT
Flags=0
Value=

[VarInfo]
Type=UTF
Flags=0
Value=

[VarInfo]
Type=CREATOR
Flags=0
Value=BrmlToV4Converter

[VarInfo]
Type=CREATOR_VERSION
Flags=0
Value=7.3.1.0

[HardwareConfiguration]
AbsorptionFactor=9999
ActivateAbsorber=0
Alpha1=0.7093
Alpha2=0.71359
AlphaAverage=0.71073
AlphaRatio=0.5
Analyzer=0
Anode=Mo
AntiScatteringSlit=18
BeamOpticsFlags=0
Beta=0.63229
BetaRelativeIntensity=0
DeactivateAbsorber=0
DetectorSlit=9999
DivergenceSlit=0.2
GoniometerControl=0
GoniometerDiameter=560
GoniometerModel=512
GoniometerStage=7
Monochromator=0
NearSampleSlit=9999
PrimarySollerSlit=2.5
SampleChanger=0
SecondSollerSlit=9999
SynchronousAxis=0
ThinFilmAttachment=9999
WaveUnit=A

[RangeHeader]
ActuallyUsedLambda=0.71073
AdditionalDetectorMask=257
DataRecordLength=4
DelayTime=0
DisplayPlaneNumber=0
EstimatedScanTime=386
ExtraParametersMask=0
GeneratorCurrent=40
GeneratorVoltage=50
Increment=0.0245361
Increment3=0
NumberOfCompletedData=775
NumberOfCounts=1
NumberOfDetectors=0
NumberOfDrives=3
NumberOfEncoderDrives=0
NumberOfMeasuredData=775
NumberOfVaryingParameters=0
RangeStartTime=0
RotationSpeed=0
ScanMode=1
ScanType=Locked Coupled
SimulatedMeasConditions=0
SlitChangerIn=0
SmootingWidth=0
Start=8
Steps=775
SynchronousRotation=0
Time=76.8

[VarInfo]
Type=PSD_DISCRIM
Flags=0
Value=0.488;0.518

[PSD]
ActualTwoTheta=9999
FirstUsedChannel=0
FixedPSD=0
PSDOpening=2.94433
PSDType=5

[Drive]
DriveFlags=1
DriveName=2Theta
DriveNumber=2
DriveOffset=0
OffsetIndex=0
OscillationAmplitude=0
OscillationSpeed=0
StartPosition=8

[Drive]
DriveFlags=1
DriveName=Theta
DriveNumber=1
DriveOffset=0
OffsetIndex=0
OscillationAmplitude=0
OscillationSpeed=0
StartPosition=4

[Drive]
DriveFlags=1
DriveName=Phi
DriveNumber=3
DriveOffset=0
OffsetIndex=0
OscillationAmplitude=0
OscillationSpeed=0
StartPosition=359.953

[Data]
     Angle,       PSD,
         8,       345,
   8.02454,       342,
   8.04907,       306,
   8.07361,       352,
   8.09814,       349,
   8.12268,       359,
   8.14722,       325,
   8.17175,       379,
   8.19629,       411,
   8.22083,       376,
   8.24536,       377,
    8.2699,       376,
   8.29443,       416,
   8.31897,       361,
   8.34351,       378,
   8.36804,       388,
   8.39258,       366,
   8.41711,       389,
   8.44165,       405,
   8.46619,       360,
   8.49072,       398,
   8.51526,       404,
   8.53979,       424,
   8.56433,       433,
   8.58887,       420,
    8.6134,       461,
   8.63794,       424,
   8.66248,       431,
   8.68701,       457,
   8.71155,       428,
   8.73608,       461,
   8.76062,       466,
   8.78516,       430,
   8.80969,       472,
   8.83423,       519,
   8.85876,       446,
    8.8833,       486,
   8.90784,       423,
   8.93237,       447,
   8.95691,       516,
   8.98144,       496,
   9.00598,       538,
   9.03052,       447,
   9.05505,       538,
   9.07959,       504,
   9.10413,       513,
   9.12866,       517,
    9.1532,       583,
   9.17773,       535,
   9.20227,       561,
   9.22681,       560,
   9.25134,       602,
   9.27588,       559,
   9.30041,       563,
   9.32495,       563,
   9.34949,       587,
   9.37402,       605,
   9.39856,       573,
    9.4231,       657,
   9.44763,       607,
   9.47217,       646,
    9.4967,       676,
   9.52124,       643,
   9.54578,       735,
   9.57031,       805,
   9.59485,       767,
   9.61938,       806,
   9.64392,       916,
   9.66846,       992,
   9.69299,      1139,
   9.71753,      1157,
   9.74206,      1103,
    9.7666,      1062,
   9.79114,       878,
   9.81567,       869,
   9.84021,       798,
   9.86475,       786,
   9.88928,       792,
   9.91382,       803,
   9.93835,       820,
   9.96289,       788,
   9.98743,       839,
    10.012,       750,
   10.0365,       792,
    10.061,       805,
   10.0856,       850,
   10.1101,       844,
   10.1346,       799,
   10.1592,       826,
   10.1837,       823,
   10.2083,       872,
   10.2328,       846,
   10.2573,       837,
   10.2819,       804,
   10.3064,       851,
   10.3309,       863,
   10.3555,       885,
     10.38,       823,
   10.4045,       923,
   10.4291,       856,
   10.4536,       846,
   10.4781,       906,
   10.5027,       902,
   10.5272,       910,
   10.5518,       947,
   10.5763,       920,
   10.6008,       927,
   10.6254,       985,
   10.6499,       929,
   10.6744,       962,
    10.699,      1031,
   10.7235,       966,
    10.748,       983,
   10.7726,       964,
   10.7971,       942,
   10.8217,      1008,
   10.8462,      1014,
   10.8707,       993,
   10.8953,       981,
   10.9198,      1041,
   10.9443,      1057,
   10.9689,      1036,
   10.9934,      1019,
   11.0179,      1050,
   11.0425,      1105,
    11.067,      1044,
   11.0916,      1067,
   11.1161,      1086,
   11.1406,      1106,
   11.1652,      1092,
   11.1897,      1149,
   11.2142,      1134,
   11.2388,      1193,
   11.2633,      1270,
   11.2878,      1360,
   11.3124,      1427,
   11.3369,      1472,
   11.3614,      1714,
    11.386,      1906,
   11.4105,      2212,
   11.4351,      2536,
   11.4596,      2760,
   11.4841,      2906,
   11.5087,      2903,
   11.5332,      2640,
   11.5577,      2411,
   11.5823,      2081,
   11.6068,      1826,
   11.6313,      1657,
   11.6559,      1409,
   11.6804,      1347,
    11.705,      1252,
   11.7295,      1236,
    11.754,      1269,
   11.7786,      1119,
   11.8031,      1185,
   11.8276,      1148,
   11.8522,      1107,
   11.8767,      1186,
   11.9012,      1093,
   11.9258,      1176,
   11.9503,      1053,
   11.9749,      1117,
   11.9994,      1087,
   12.0239,      1147,
   12.0485,      1191,
    12.073,      1187,
   12.0975,      1222,
   12.1221,      1146,
   12.1466,      1186,
   12.1711,      1285,
   12.1957,      1269,
   12.2202,      1354,
   12.2447,      1430,
   12.2693,      1482,
   12.2938,      1591,
   12.3184,      1802,
   12.3429,      2140,
   12.3674,      2485,
    12.392,      2857,
   12.4165,      3319,
    12.441,      3738,
   12.4656,      3784,
   12.4901,      3866,
   12.5146,      3654,
   12.5392,      3111,
   12.5637,      2699,
   12.5883,      2272,
   12.6128,      1947,
   12.6373,      1727,
   12.6619,      1503,
   12.6864,      1374,
   12.7109,      1312,
   12.7355,      1243,
     12.76,      1234,
   12.7845,      1145,
   12.8091,      1139,
   12.8336,      1157,
   12.8582,      1146,
   12.8827,      1095,
   12.9072,      1088,
   12.9318,      1098,
   12.9563,      1078,
   12.9808,      1045,
   13.0054,      1024,
   13.0299,      1036,
   13.0544,      1030,
    13.079,      1027,
   13.1035,      1074,
    13.128,       996,
   13.1526,      1061,
   13.1771,      1033,
   13.2017,       987,
   13.2262,      1016,
   13.2507,      1060,
   13.2753,      1054,
   13.2998,      1064,
   13.3243,      1069,
   13.3489,      1094,
   13.3734,      1116,
   13.3979,      1057,
   13.4225,      1108,
    13.447,      1124,
   13.4716,      1313,
   13.4961,      1253,
   13.5206,      1329,
   13.5452,      1238,
   13.5697,      1215,
   13.5942,      1127,
   13.6188,      1144,
   13.6433,      1084,
   13.6678,      1020,
   13.6924,       971,
   13.7169,       981,
   13.7415,       937,
    13.766,      1009,
   13.7905,       946,
   13.8151,      1036,
   13.8396,       910,
   13.8641,       930,
   13.8887,       989,
   13.9132,       956,
   13.9377,       980,
   13.9623,       941,
   13.9868,       945,
   14.0113,      1003,
   14.0359,       987,
   14.0604,       942,
    14.085,       937,
   14.1095,       898,
    14.134,       928,
   14.1586,       920,
   14.1831,       910,
   14.2076,       934,
   14.2322,       932,
   14.2567,       978,
   14.2812,       936,
   14.3058,       991,
   14.3303,       916,
   14.3549,       925,
   14.3794,       969,
   14.4039,       951,
   14.4285,       972,
    14.453,      1045,
   14.4775,      1024,
   14.5021,      1049,
   14.5266,      1041,
   14.5511,      1008,
   14.5757,      1070,
   14.6002,       986,
   14.6248,      1020,
   14.6493,      1070,
   14.6738,       997,
   14.6984,      1055,
   14.7229,       999,
   14.7474,      1026,
    14.772,      1137,
   14.7965,      1187,
    14.821,      1208,
   14.8456,      1364,
   14.8701,      1480,
   14.8946,      1676,
   14.9192,      1953,
   14.9437,      2283,
   14.9683,      2610,
   14.9928,      2932,
   15.0173,      3099,
   15.0419,      3046,
   15.0664,      2944,
   15.0909,      2750,
   15.1155,      2514,
     15.14,      2126,
   15.1645,      1961,
   15.1891,      1582,
   15.2136,      1405,
   15.2382,      1273,
   15.2627,      1205,
   15.2872,      1088,
   15.3118,      1034,
   15.3363,      1038,
   15.3608,       963,
   15.3854,       909,
   15.4099,       969,
   15.4344,       856,
    15.459,       905,
   15.4835,       854,
   15.5081,       877,
   15.5326,       905,
   15.5571,       824,
   15.5817,       834,
   15.6062,       857,
   15.6307,       835,
   15.6553,       782,
   15.6798,       759,
   15.7043,       779,
   15.7289,       808,
   15.7534,       797,
    15.778,       807,
   15.8025,       807,
    15.827,       760,
   15.8516,       775,
   15.8761,       716,
   15.9006,       731,
   15.9252,       764,
   15.9497,       751,
   15.9742,       674,
   15.9988,       722,
   16.0233,       725,
   16.0478,       750,
   16.0724,       729,
   16.0969,       686,
   16.1215,       711,
    16.146,       693,
   16.1705,       723,
   16.1951,       703,
   16.2196,       718,
   16.2441,       708,
   16.2687,       704,
   16.2932,       759,
   16.3177,       732,
   16.3423,       722,
   16.3668,       654,
   16.3914,       731,
   16.4159,       746,
   16.4404,       785,
    16.465,       716,
   16.4895,       655,
    16.514,       682,
   16.5386,       698,
   16.5631,       682,
   16.5876,       647,
   16.6122,       649,
   16.6367,       673,
   16.6613,       623,
   16.6858,       682,
   16.7103,       685,
   16.7349,       700,
   16.7594,       591,
   16.7839,       626,
   16.8085,       682,
    16.833,       618,
   16.8575,       687,
   16.8821,       679,
   16.9066,       646,
   16.9311,       603,
   16.9557,       648,
   16.9802,       665,
   17.0048,       633,
   17.0293,       646,
   17.0538,       655,
   17.0784,       602,
   17.1029,       629,
   17.1274,       647,
    17.152,       661,
   17.1765,       667,
    17.201,       645,
   17.2256,       649,
   17.2501,       619,
   17.2747,       674,
   17.2992,       624,
   17.3237,       691,
   17.3483,       650,
   17.3728,       626,
   17.3973,       667,
   17.4219,       682,
   17.4464,       669,
   17.4709,       678,
   17.4955,       680,
     17.52,       764,
   17.5446,       703,
   17.5691,       689,
   17.5936,       788,
   17.6182,       739,
   17.6427,       764,
   17.6672,       761,
   17.6918,       851,
   17.7163,       859,
   17.7408,       837,
   17.7654,       820,
   17.7899,       845,
   17.8144,       800,
    17.839,       794,
   17.8635,       799,
   17.8881,       837,
   17.9126,       775,
   17.9371,       886,
   17.9617,       830,
   17.9862,       794,
   18.0107,       773,
   18.0353,       788,
   18.0598,       764,
   18.0843,       827,
   18.1089,       792,
   18.1334,       741,
    18.158,       729,
   18.1825,       754,
    18.207,       731,
   18.2316,       725,
   18.2561,       735,
   18.2806,       695,
   18.3052,       686,
   18.3297,       688,
   18.3542,       742,
   18.3788,       725,
   18.4033,       709,
   18.4279,       674,
   18.4524,       734,
   18.4769,       716,
   18.5015,       750,
    18.526,       762,
   18.5505,       706,
   18.5751,       754,
   18.5996,       705,
   18.6241,       742,
   18.6487,       754,
   18.6732,       728,
   18.6977,       718,
   18.7223,       721,
   18.7468,       738,
   18.7714,       740,
   18.7959,       671,
   18.8204,       693,
    18.845,       716,
   18.8695,       704,
    18.894,       673,
   18.9186,       703,
   18.9431,       725,
   18.9676,       748,
   18.9922,       678,
   19.0167,       699,
   19.0413,       720,
   19.0658,       689,
   19.0903,       685,
   19.1149,       744,
   19.1394,       656,
   19.1639,       675,
   19.1885,       701,
    19.213,       727,
   19.2375,       750,
   19.2621,       713,
   19.2866,       770,
   19.3112,       761,
   19.3357,       828,
   19.3602,       832,
   19.3848,       877,
   19.4093,       904,
   19.4338,       893,
   19.4584,       824,
   19.4829,       863,
   19.5074,       875,
    19.532,       784,
   19.5565,       836,
    19.581,       788,
   19.6056,       812,
   19.6301,       812,
   19.6547,       830,
   19.6792,       874,
   19.7037,       976,
   19.7283,       987,
   19.7528,      1093,
   19.7773,      1202,
   19.8019,      1408,
   19.8264,      1521,
   19.8509,      1710,
   19.8755,      1718,
      19.9,      1783,
   19.9246,      1723,
   19.9491,      1641,
   19.9736,      1528,
   19.9982,      1471,
   20.0227,      1333,
   20.0472,      1259,
   20.0718,      1124,
   20.0963,       993,
   20.1208,       959,
   20.1454,       847,
   20.1699,       752,
   20.1945,       828,
    20.219,       701,
   20.2435,       728,
   20.2681,       722,
   20.2926,       708,
   20.3171,       647,
   20.3417,       679,
   20.3662,       698,
   20.3907,       632,
   20.4153,       694,
   20.4398,       660,
   20.4643,       669,
   20.4889,       655,
   20.5134,       682,
    20.538,       662,
   20.5625,       692,
    20.587,       642,
   20.6116,       654,
   20.6361,       630,
   20.6606,       656,
   20.6852,       590,
   20.7097,       666,
   20.7342,       633,
   20.7588,       593,
   20.7833,       633,
   20.8079,       671,
   20.8324,       579,
   20.8569,       593,
   20.8815,       635,
    20.906,       589,
   20.9305,       586,
   20.9551,       604,
   20.9796,       643,
   21.0041,       618,
   21.0287,       574,
   21.0532,       627,
   21.0778,       614,
   21.1023,       673,
   21.1268,       651,
   21.1514,       657,
   21.1759,       609,
   21.2004,       617,
    21.225,       634,
   21.2495,       632,
    21.274,       681,
   21.2986,       780,
   21.3231,       753,
   21.3476,       719,
   21.3722,       683,
   21.3967,       672,
   21.4213,       714,
   21.4458,       717,
   21.4703,       666,
   21.4949,       665,
   21.5194,       660,
   21.5439,       629,
   21.5685,       645,
    21.593,       623,
   21.6175,       684,
   21.6421,       698,
   21.6666,       637,
   21.6912,       695,
   21.7157,       674,
   21.7402,       697,
   21.7648,       701,
   21.7893,       685,
   21.8138,       680,
   21.8384,       706,
   21.8629,       744,
   21.8874,       716,
    21.912,       775,
   21.9365,       751,
   21.9611,       781,
   21.9856,       771,
   22.0101,       859,
   22.0347,       813,
   22.0592,       901,
   22.0837,       996,
   22.1083,       975,
   22.1328,       991,
   22.1573,       951,
   22.1819,      1043,
   22.2064,       989,
    22.231,       932,
   22.2555,       979,
     22.28,       919,
   22.3046,       857,
   22.3291,       907,
   22.3536,       892,
   22.3782,       912,
   22.4027,       932,
   22.4272,      1029,
   22.4518,      1105,
   22.4763,      1265,
   22.5008,      1438,
   22.5254,      1442,
   22.5499,      1546,
   22.5745,      1479,
    22.599,      1521,
   22.6235,      1417,
   22.6481,      1333,
   22.6726,      1294,
   22.6971,      1241,
   22.7217,      1098,
   22.7462,      1000,
   22.7707,       870,
   22.7953,       840,
   22.8198,       828,
   22.8444,       772,
   22.8689,       764,
   22.8934,       734,
    22.918,       681,
   22.9425,       728,
    22.967,       697,
   22.9916,       700,
   23.0161,       712,
   23.0406,       685,
   23.0652,       673,
   23.0897,       672,
   23.1143,       667,
   23.1388,       675,
   23.1633,       619,
   23.1879,       596,
   23.2124,       644,
   23.2369,       609,
   23.2615,       584,
    23.286,       575,
   23.3105,       602,
   23.3351,       593,
   23.3596,       582,
   23.3841,       608,
   23.4087,       620,
   23.4332,       602,
   23.4578,       642,
   23.4823,       626,
   23.5068,       638,
   23.5314,       603,
   23.5559,       599,
   23.5804,       629,
    23.605,       624,
   23.6295,       627,
    23.654,       628,
   23.6786,       578,
   23.7031,       618,
   23.7277,       566,
   23.7522,       600,
   23.7767,       655,
   23.8013,       606,
   23.8258,       624,
   23.8503,       582,
   23.8749,       611,
   23.8994,       596,
   23.9239,       594,
   23.9485,       610,
    23.973,       627,
   23.9976,       616,
   24.0221,       628,
   24.0466,       614,
   24.0712,       652,
   24.0957,       619,
   24.1202,       627,
   24.1448,       589,
   24.1693,       638,
   24.1938,       613,
   24.2184,       629,
   24.2429,       607,
   24.2674,       607,
    24.292,       617,
   24.3165,       558,
   24.3411,       626,
   24.3656,       567,
   24.3901,       630,
   24.4147,       660,
   24.4392,       669,
   24.4637,       618,
   24.4883,       697,
   24.5128,       664,
   24.5373,       665,
   24.5619,       646,
   24.5864,       614,
    24.611,       655,
   24.6355,       691,
     24.66,       628,
   24.6846,       660,
   24.7091,       684,
   24.7336,       698,
   24.7582,       726,
   24.7827,       739,
   24.8072,       747,
   24.8318,       776,
   24.8563,       765,
   24.8809,       818,
   24.9054,       811,
   24.9299,       914,
   24.9545,       885,
    24.979,       953,
   25.0035,       967,
   25.0281,       876,
   25.0526,       959,
   25.0771,       828,
   25.1017,       827,
   25.1262,       888,
   25.1507,       813,
   25.1753,       849,
   25.1998,       749,
   25.2244,       740,
   25.2489,       724,
   25.2734,       688,
    25.298,       719,
   25.3225,       642,
    25.347,       694,
   25.3716,       647,
   25.3961,       646,
   25.4206,       699,
   25.4452,       652,
   25.4697,       630,
   25.4943,       663,
   25.5188,       704,
   25.5433,       679,
   25.5679,       649,
   25.5924,       630,
   25.6169,       621,
   25.6415,       657,
    25.666,       658,
   25.6905,       640,
   25.7151,       692,
   25.7396,       647,
   25.7642,       624,
   25.7887,       667,
   25.8132,       643,
   25.8378,       677,
   25.8623,       593,
   25.8868,       638,
   25.9114,       636,
   25.9359,       618,
   25.9604,       627,
    25.985,       600,
   26.0095,       593,
    26.034,       635,
   26.0586,       651,
   26.0831,       674,
   26.1077,       580,
   26.1322,       562,
   26.1567,       676,
   26.1813,       641,
   26.2058,       616,
   26.2303,       620,
   26.2549,       577,
   26.2794,       611,
   26.3039,       615,
   26.3285,       574,
    26.353,       618,
   26.3776,       622,
   26.4021,       619,
   26.4266,       630,
   26.4512,       610,
   26.4757,       646,
   26.5002,       669,
   26.5248,       648,
   26.5493,       657,
   26.5738,       659,
   26.5984,       650,
   26.6229,       656,
   26.6475,       642,
    26.672,       700,
   26.6965,       642,
   26.7211,       709,
   26.7456,       720,
   26.7701,       694,
   26.7947,       663,
   26.8192,       703,
   26.8437,       720,
   26.8683,       705,
   26.8928,       706,
   26.9173,       651,
   26.9419,       720,
   26.9664,       662,
    26.991,       677,
